time,position,velocity,exact_solution,abs_error
0,1,0,1,0
0.001,0.999999,-0.001,1,5.94461e-10
0.002,0.999998,-0.002,0.999998,1.19792e-09
0.003,0.999995,-0.003,0.999996,1.78437e-09
0.004,0.999992,-0.00399999,0.999992,2.38982e-09
0.005,0.999987,-0.00499998,0.999988,3.00226e-09
0.006,0.999982,-0.00599996,0.999982,3.57937e-09
0.007,0.999975,-0.00699994,0.999976,4.19246e-09
0.008,0.999968,-0.00799991,0.999968,4.76688e-09
0.009,0.999959,-0.00899988,0.99996,5.40595e-09
0.01,0.99995,-0.00999983,0.99995,5.96734e-09
0.011,0.999939,-0.0109998,0.99994,6.5147e-09
0.012,0.999928,-0.0119997,0.999928,7.07272e-09
0.013,0.999915,-0.0129996,0.999916,7.60073e-09
0.014,0.999902,-0.0139995,0.999902,8.13904e-09
0.015,0.999887,-0.0149994,0.999888,8.71833e-09
0.016,0.999872,-0.0159993,0.999872,9.29627e-09
0.017,0.999855,-0.0169992,0.999856,9.86821e-09
0.018,0.999838,-0.017999,0.999838,1.04294e-08
0.019,0.999819,-0.0189989,0.99982,1.09496e-08
0.02,0.9998,-0.0199987,0.9998,1.14557e-08
0.021,0.999779,-0.0209985,0.99978,1.19728e-08
0.022,0.999758,-0.0219982,0.999758,1.24949e-08
0.023,0.999735,-0.022998,0.999736,1.30507e-08
0.024,0.999712,-0.0239977,0.999712,1.35707e-08
0.025,0.999688,-0.0249974,0.999688,1.40777e-08
0.026,0.999662,-0.0259971,0.999662,1.46063e-08
0.027,0.999636,-0.0269967,0.999636,1.52e-08
0.028,0.999608,-0.0279963,0.999608,1.57858e-08
0.029,0.99958,-0.0289959,0.99958,1.63446e-08
0.03,0.99955,-0.0299955,0.99955,1.69473e-08
0.031,0.99952,-0.030995,0.99952,1.756e-08
0.032,0.999488,-0.0319945,0.999488,1.81184e-08
0.033,0.999456,-0.032994,0.999456,1.868e-08
0.034,0.999422,-0.0339934,0.999422,1.92273e-08
0.035,0.999388,-0.0349929,0.999388,1.97838e-08
0.036,0.999352,-0.0359922,0.999352,2.03e-08
0.037,0.999316,-0.0369916,0.999316,2.08164e-08
0.038,0.999278,-0.0379909,0.999278,2.13827e-08
0.039,0.99924,-0.0389901,0.99924,2.18778e-08
0.04,0.9992,-0.0399893,0.9992,2.2456e-08
0.041,0.99916,-0.0409885,0.99916,2.30461e-08
0.042,0.999118,-0.0419877,0.999118,2.36311e-08
0.043,0.999076,-0.0429867,0.999076,2.42469e-08
0.044,0.999032,-0.0439858,0.999032,2.48098e-08
0.045,0.998988,-0.0449848,0.998988,2.53585e-08
0.046,0.998942,-0.0459838,0.998942,2.58993e-08
0.047,0.998896,-0.0469827,0.998896,2.6422e-08
0.048,0.998848,-0.0479816,0.998848,2.69817e-08
0.049,0.9988,-0.0489804,0.9988,2.74992e-08
0.05,0.99875,-0.0499792,0.99875,2.80767e-08
0.051,0.9987,-0.0509779,0.9987,2.8659e-08
0.052,0.998648,-0.0519766,0.998648,2.92701e-08
0.053,0.998596,-0.0529752,0.998596,2.98244e-08
0.054,0.998542,-0.0539738,0.998542,3.03754e-08
0.055,0.998488,-0.0549723,0.998488,3.09225e-08
0.056,0.998432,-0.0559707,0.998432,3.14415e-08
0.057,0.998376,-0.0569691,0.998376,3.19634e-08
0.058,0.998318,-0.0579675,0.998318,3.24922e-08
0.059,0.99826,-0.0589658,0.99826,3.30859e-08
0.06,0.998201,-0.059964,0.998201,3.36745e-08
0.061,0.99814,-0.0609622,0.99814,3.4256e-08
0.062,0.998079,-0.0619603,0.998079,3.48294e-08
0.063,0.998016,-0.0629583,0.998016,3.53667e-08
0.064,0.997953,-0.0639563,0.997953,3.59099e-08
0.065,0.997888,-0.0649542,0.997888,3.64261e-08
0.066,0.997823,-0.0659521,0.997823,3.69961e-08
0.067,0.997756,-0.0669499,0.997756,3.75839e-08
0.068,0.997689,-0.0679476,0.997689,3.81487e-08
0.069,0.99762,-0.0689453,0.99762,3.87144e-08
0.07,0.997551,-0.0699428,0.997551,3.92439e-08
0.071,0.997481,-0.0709404,0.997481,3.97823e-08
0.072,0.997409,-0.0719378,0.997409,4.03447e-08
0.073,0.997337,-0.0729352,0.997337,4.09199e-08
0.074,0.997263,-0.0739325,0.997263,4.1524e-08
0.075,0.997189,-0.0749297,0.997189,4.20709e-08
0.076,0.997113,-0.0759269,0.997113,4.26048e-08
0.077,0.997037,-0.0769239,0.997037,4.31065e-08
0.078,0.996959,-0.0779209,0.99696,4.3667e-08
0.079,0.996881,-0.0789178,0.996881,4.42423e-08
0.08,0.996802,-0.0799147,0.996802,4.48237e-08
0.081,0.996721,-0.0809115,0.996721,4.53698e-08
0.082,0.99664,-0.0819081,0.99664,4.58868e-08
0.083,0.996557,-0.0829047,0.996557,4.6393e-08
0.084,0.996474,-0.0839012,0.996474,4.69699e-08
0.085,0.99639,-0.0848977,0.99639,4.75703e-08
0.086,0.996304,-0.085894,0.996304,4.8135e-08
0.087,0.996218,-0.0868903,0.996218,4.86805e-08
0.088,0.99613,-0.0878865,0.99613,4.92027e-08
0.089,0.996042,-0.0888825,0.996042,4.97776e-08
0.09,0.995953,-0.0898785,0.995953,5.03743e-08
0.091,0.995862,-0.0908745,0.995862,5.09249e-08
0.092,0.995771,-0.0918703,0.995771,5.14329e-08
0.093,0.995679,-0.092866,0.995679,5.19712e-08
0.094,0.995585,-0.0938616,0.995585,5.25404e-08
0.095,0.995491,-0.0948572,0.995491,5.31333e-08
0.096,0.995395,-0.0958526,0.995396,5.37055e-08
0.097,0.995299,-0.096848,0.995299,5.42442e-08
0.098,0.995202,-0.0978432,0.995202,5.47753e-08
0.099,0.995103,-0.0988384,0.995104,5.53516e-08
0.1,0.995004,-0.0998334,0.995004,5.59263e-08
0.101,0.994904,-0.100828,0.994904,5.64823e-08
0.102,0.994802,-0.101823,0.994803,5.70053e-08
0.103,0.9947,-0.102818,0.9947,5.75675e-08
0.104,0.994597,-0.103813,0.994597,5.8142e-08
0.105,0.994493,-0.104807,0.994493,5.87049e-08
0.106,0.994387,-0.105802,0.994387,5.92222e-08
0.107,0.994281,-0.106796,0.994281,5.97918e-08
0.108,0.994174,-0.10779,0.994174,6.03865e-08
0.109,0.994065,-0.108784,0.994065,6.09332e-08
0.11,0.993956,-0.109778,0.993956,6.14508e-08
0.111,0.993846,-0.110772,0.993846,6.19742e-08
0.112,0.993734,-0.111766,0.993735,6.25522e-08
0.113,0.993622,-0.11276,0.993622,6.30982e-08
0.114,0.993509,-0.113753,0.993509,6.3622e-08
0.115,0.993395,-0.114747,0.993395,6.41644e-08
0.116,0.993279,-0.11574,0.99328,6.47567e-08
0.117,0.993163,-0.116733,0.993163,6.52828e-08
0.118,0.993046,-0.117726,0.993046,6.5796e-08
0.119,0.992928,-0.118719,0.992928,6.63538e-08
0.12,0.992809,-0.119712,0.992809,6.69342e-08
0.121,0.992688,-0.120705,0.992688,6.74648e-08
0.122,0.992567,-0.121698,0.992567,6.79741e-08
0.123,0.992445,-0.12269,0.992445,6.85521e-08
0.124,0.992322,-0.123682,0.992322,6.9096e-08
0.125,0.992198,-0.124675,0.992198,6.96038e-08
0.126,0.992072,-0.125667,0.992072,7.01522e-08
0.127,0.991946,-0.126659,0.991946,7.07353e-08
0.128,0.991819,-0.127651,0.991819,7.12794e-08
0.129,0.991691,-0.128643,0.991691,7.18074e-08
0.13,0.991562,-0.129634,0.991562,7.23729e-08
0.131,0.991432,-0.130626,0.991432,7.29283e-08
0.132,0.991301,-0.131617,0.991301,7.34338e-08
0.133,0.991168,-0.132608,0.991169,7.39677e-08
0.134,0.991035,-0.133599,0.991035,7.45355e-08
0.135,0.990901,-0.13459,0.990901,7.50441e-08
0.136,0.990766,-0.135581,0.990766,7.55724e-08
0.137,0.99063,-0.136572,0.99063,7.61555e-08
0.138,0.990493,-0.137562,0.990493,7.67032e-08
0.139,0.990355,-0.138553,0.990355,7.72129e-08
0.14,0.990216,-0.139543,0.990216,7.7788e-08
0.141,0.990076,-0.140533,0.990076,7.83424e-08
0.142,0.989935,-0.141523,0.989935,7.88703e-08
0.143,0.989793,-0.142513,0.989793,7.94118e-08
0.144,0.98965,-0.143503,0.98965,7.99736e-08
0.145,0.989506,-0.144492,0.989506,8.04778e-08
0.146,0.989361,-0.145482,0.989361,8.10202e-08
0.147,0.989215,-0.146471,0.989215,8.15738e-08
0.148,0.989068,-0.14746,0.989068,8.21062e-08
0.149,0.98892,-0.148449,0.98892,8.2639e-08
0.15,0.988771,-0.149438,0.988771,8.32047e-08
0.151,0.988621,-0.150427,0.988621,8.37404e-08
0.152,0.98847,-0.151415,0.98847,8.42907e-08
0.153,0.988318,-0.152404,0.988318,8.48468e-08
0.154,0.988165,-0.153392,0.988165,8.53648e-08
0.155,0.988011,-0.15438,0.988012,8.59114e-08
0.156,0.987857,-0.155368,0.987857,8.64618e-08
0.157,0.987701,-0.156356,0.987701,8.69691e-08
0.158,0.987544,-0.157343,0.987544,8.75478e-08
0.159,0.987386,-0.158331,0.987386,8.80944e-08
0.16,0.987227,-0.159318,0.987227,8.86228e-08
0.161,0.987067,-0.160305,0.987067,8.91738e-08
0.162,0.986907,-0.161292,0.986907,8.97067e-08
0.163,0.986745,-0.162279,0.986745,9.02394e-08
0.164,0.986582,-0.163266,0.986582,9.07966e-08
0.165,0.986418,-0.164252,0.986418,9.13416e-08
0.166,0.986254,-0.165239,0.986254,9.18595e-08
0.167,0.986088,-0.166225,0.986088,9.24178e-08
0.168,0.985921,-0.167211,0.985921,9.29302e-08
0.169,0.985753,-0.168197,0.985753,9.34909e-08
0.17,0.985585,-0.169182,0.985585,9.40099e-08
0.171,0.985415,-0.170168,0.985415,9.45343e-08
0.172,0.985244,-0.171153,0.985244,9.50852e-08
0.173,0.985073,-0.172138,0.985073,9.56002e-08
0.174,0.9849,-0.173123,0.9849,9.61369e-08
0.175,0.984726,-0.174108,0.984727,9.6686e-08
0.176,0.984552,-0.175093,0.984552,9.7202e-08
0.177,0.984376,-0.176077,0.984376,9.77604e-08
0.178,0.9842,-0.177062,0.9842,9.82838e-08
0.179,0.984022,-0.178046,0.984022,9.88267e-08
0.18,0.983844,-0.17903,0.983844,9.93723e-08
0.181,0.983664,-0.180013,0.983664,9.98978e-08
0.182,0.983484,-0.180997,0.983484,1.00458e-07
0.183,0.983302,-0.18198,0.983302,1.00971e-07
0.184,0.98312,-0.182963,0.98312,1.01499e-07
0.185,0.982936,-0.183947,0.982936,1.02047e-07
0.186,0.982752,-0.184929,0.982752,1.02552e-07
0.187,0.982566,-0.185912,0.982566,1.03101e-07
0.188,0.98238,-0.186894,0.98238,1.03609e-07
0.189,0.982192,-0.187877,0.982193,1.04172e-07
0.19,0.982004,-0.188859,0.982004,1.04698e-07
0.191,0.981815,-0.189841,0.981815,1.05224e-07
0.192,0.981624,-0.190823,0.981625,1.0577e-07
0.193,0.981433,-0.191804,0.981433,1.06283e-07
0.194,0.981241,-0.192785,0.981241,1.0684e-07
0.195,0.981048,-0.193767,0.981048,1.07341e-07
0.196,0.980853,-0.194747,0.980853,1.07897e-07
0.197,0.980658,-0.195728,0.980658,1.08402e-07
0.198,0.980462,-0.196709,0.980462,1.08933e-07
0.199,0.980265,-0.197689,0.980265,1.09461e-07
0.2,0.980066,-0.198669,0.980067,1.09965e-07
0.201,0.979867,-0.199649,0.979867,1.10529e-07
0.202,0.979667,-0.200629,0.979667,1.11037e-07
0.203,0.979466,-0.201609,0.979466,1.11583e-07
0.204,0.979264,-0.202588,0.979264,1.12067e-07
0.205,0.979061,-0.203567,0.979061,1.12614e-07
0.206,0.978857,-0.204546,0.978857,1.13145e-07
0.207,0.978652,-0.205525,0.978652,1.13683e-07
0.208,0.978446,-0.206503,0.978446,1.14205e-07
0.209,0.978239,-0.207482,0.978239,1.14738e-07
0.21,0.978031,-0.20846,0.978031,1.15282e-07
0.211,0.977822,-0.209438,0.977822,1.15785e-07
0.212,0.977612,-0.210416,0.977612,1.1632e-07
0.213,0.977401,-0.211393,0.977401,1.16829e-07
0.214,0.977189,-0.21237,0.977189,1.17365e-07
0.215,0.976976,-0.213347,0.976976,1.17879e-07
0.216,0.976762,-0.214324,0.976763,1.18422e-07
0.217,0.976548,-0.215301,0.976548,1.18914e-07
0.218,0.976332,-0.216277,0.976332,1.19467e-07
0.219,0.976115,-0.217254,0.976115,1.19979e-07
0.22,0.975897,-0.21823,0.975897,1.20529e-07
0.221,0.975679,-0.219205,0.975679,1.21032e-07
0.222,0.975459,-0.220181,0.975459,1.21567e-07
0.223,0.975238,-0.221156,0.975238,1.22074e-07
0.224,0.975017,-0.222131,0.975017,1.22616e-07
0.225,0.974794,-0.223106,0.974794,1.23124e-07
0.226,0.97457,-0.224081,0.974571,1.23672e-07
0.227,0.974346,-0.225055,0.974346,1.24173e-07
0.228,0.97412,-0.22603,0.97412,1.2472e-07
0.229,0.973894,-0.227004,0.973894,1.2523e-07
0.23,0.973666,-0.227977,0.973666,1.25772e-07
0.231,0.973438,-0.228951,0.973438,1.26295e-07
0.232,0.973208,-0.229924,0.973208,1.26848e-07
0.233,0.972978,-0.230897,0.972978,1.27365e-07
0.234,0.972747,-0.23187,0.972747,1.27907e-07
0.235,0.972514,-0.232843,0.972514,1.28416e-07
0.236,0.972281,-0.233815,0.972281,1.28945e-07
0.237,0.972047,-0.234788,0.972047,1.29457e-07
0.238,0.971811,-0.235759,0.971811,1.29978e-07
0.239,0.971575,-0.236731,0.971575,1.30481e-07
0.24,0.971338,-0.237703,0.971338,1.30982e-07
0.241,0.9711,-0.238674,0.9711,1.31522e-07
0.242,0.97086,-0.239645,0.970861,1.32043e-07
0.243,0.97062,-0.240616,0.97062,1.3257e-07
0.244,0.970379,-0.241586,0.970379,1.33072e-07
0.245,0.970137,-0.242556,0.970137,1.33611e-07
0.246,0.969894,-0.243526,0.969894,1.3411e-07
0.247,0.96965,-0.244496,0.96965,1.34644e-07
0.248,0.969405,-0.245466,0.969405,1.35141e-07
0.249,0.969159,-0.246435,0.969159,1.35672e-07
0.25,0.968912,-0.247404,0.968912,1.36179e-07
0.251,0.968664,-0.248373,0.968665,1.36702e-07
0.252,0.968416,-0.249341,0.968416,1.37233e-07
0.253,0.968166,-0.25031,0.968166,1.37707e-07
0.254,0.967915,-0.251278,0.967915,1.38228e-07
0.255,0.967663,-0.252245,0.967663,1.38737e-07
0.256,0.96741,-0.253213,0.967411,1.39262e-07
0.257,0.967157,-0.25418,0.967157,1.39765e-07
0.258,0.966902,-0.255147,0.966902,1.40284e-07
0.259,0.966646,-0.256114,0.966647,1.40805e-07
0.26,0.96639,-0.257081,0.96639,1.41291e-07
0.261,0.966132,-0.258047,0.966132,1.41814e-07
0.262,0.965874,-0.259013,0.965874,1.42312e-07
0.263,0.965614,-0.259979,0.965614,1.42833e-07
0.264,0.965354,-0.260944,0.965354,1.43324e-07
0.265,0.965092,-0.261909,0.965093,1.4382e-07
0.266,0.96483,-0.262874,0.96483,1.44343e-07
0.267,0.964567,-0.263839,0.964567,1.44848e-07
0.268,0.964302,-0.264803,0.964302,1.45349e-07
0.269,0.964037,-0.265767,0.964037,1.45856e-07
0.27,0.963771,-0.266731,0.963771,1.46376e-07
0.271,0.963504,-0.267695,0.963504,1.46884e-07
0.272,0.963235,-0.268658,0.963236,1.4737e-07
0.273,0.962966,-0.269622,0.962966,1.47879e-07
0.274,0.962696,-0.270584,0.962696,1.48377e-07
0.275,0.962425,-0.271547,0.962425,1.4888e-07
0.276,0.962153,-0.272509,0.962153,1.49391e-07
0.277,0.96188,-0.273471,0.96188,1.49893e-07
0.278,0.961606,-0.274433,0.961606,1.50407e-07
0.279,0.961331,-0.275394,0.961331,1.50916e-07
0.28,0.961055,-0.276356,0.961055,1.51423e-07
0.281,0.960778,-0.277317,0.960779,1.51934e-07
0.282,0.960501,-0.278277,0.960501,1.52428e-07
0.283,0.960222,-0.279238,0.960222,1.5293e-07
0.284,0.959942,-0.280198,0.959942,1.53439e-07
0.285,0.959661,-0.281157,0.959662,1.53924e-07
0.286,0.95938,-0.282117,0.95938,1.54434e-07
0.287,0.959097,-0.283076,0.959097,1.54949e-07
0.288,0.958814,-0.284035,0.958814,1.55426e-07
0.289,0.958529,-0.284994,0.958529,1.55941e-07
0.29,0.958244,-0.285952,0.958244,1.56427e-07
0.291,0.957957,-0.28691,0.957957,1.56934e-07
0.292,0.95767,-0.287868,0.95767,1.57443e-07
0.293,0.957382,-0.288826,0.957382,1.57936e-07
0.294,0.957092,-0.289783,0.957092,1.58441e-07
0.295,0.956802,-0.29074,0.956802,1.58935e-07
0.296,0.956511,-0.291696,0.956511,1.59423e-07
0.297,0.956219,-0.292653,0.956219,1.59913e-07
0.298,0.955925,-0.293609,0.955926,1.60412e-07
0.299,0.955631,-0.294565,0.955632,1.60897e-07
0.3,0.955336,-0.29552,0.955336,1.61375e-07
0.301,0.95504,-0.296475,0.95504,1.61876e-07
0.302,0.954743,-0.29743,0.954744,1.62367e-07
0.303,0.954445,-0.298385,0.954446,1.62862e-07
0.304,0.954147,-0.299339,0.954147,1.63361e-07
0.305,0.953847,-0.300293,0.953847,1.63845e-07
0.306,0.953546,-0.301247,0.953546,1.64343e-07
0.307,0.953244,-0.3022,0.953244,1.64845e-07
0.308,0.952942,-0.303153,0.952942,1.65333e-07
0.309,0.952638,-0.304106,0.952638,1.65816e-07
0.31,0.952333,-0.305059,0.952334,1.6634e-07
0.311,0.952028,-0.306011,0.952028,1.66819e-07
0.312,0.951721,-0.306963,0.951722,1.67322e-07
0.313,0.951414,-0.307914,0.951414,1.67829e-07
0.314,0.951106,-0.308865,0.951106,1.68332e-07
0.315,0.950796,-0.309816,0.950796,1.68802e-07
0.316,0.950486,-0.310767,0.950486,1.69295e-07
0.317,0.950175,-0.311717,0.950175,1.69785e-07
0.318,0.949862,-0.312667,0.949863,1.70257e-07
0.319,0.949549,-0.313617,0.94955,1.70743e-07
0.32,0.949235,-0.314567,0.949235,1.71227e-07
0.321,0.94892,-0.315516,0.94892,1.71707e-07
0.322,0.948604,-0.316464,0.948604,1.72181e-07
0.323,0.948287,-0.317413,0.948287,1.72687e-07
0.324,0.947969,-0.318361,0.94797,1.73172e-07
0.325,0.947651,-0.319309,0.947651,1.73647e-07
0.326,0.947331,-0.320256,0.947331,1.74129e-07
0.327,0.94701,-0.321203,0.94701,1.74614e-07
0.328,0.946688,-0.32215,0.946689,1.75086e-07
0.329,0.946366,-0.323097,0.946366,1.75562e-07
0.33,0.946042,-0.324043,0.946042,1.76037e-07
0.331,0.945718,-0.324989,0.945718,1.76514e-07
0.332,0.945392,-0.325934,0.945392,1.76982e-07
0.333,0.945066,-0.32688,0.945066,1.77446e-07
0.334,0.944738,-0.327825,0.944739,1.77926e-07
0.335,0.94441,-0.328769,0.94441,1.78401e-07
0.336,0.944081,-0.329713,0.944081,1.78882e-07
0.337,0.943751,-0.330657,0.943751,1.79349e-07
0.338,0.94342,-0.331601,0.94342,1.79828e-07
0.339,0.943088,-0.332544,0.943088,1.8031e-07
0.34,0.942754,-0.333487,0.942755,1.80772e-07
0.341,0.942421,-0.33443,0.942421,1.81243e-07
0.342,0.942086,-0.335372,0.942086,1.8173e-07
0.343,0.94175,-0.336314,0.94175,1.82212e-07
0.344,0.941413,-0.337255,0.941413,1.82683e-07
0.345,0.941075,-0.338197,0.941075,1.83149e-07
0.346,0.940737,-0.339138,0.940737,1.83633e-07
0.347,0.940397,-0.340078,0.940397,1.84113e-07
0.348,0.940056,-0.341018,0.940057,1.84573e-07
0.349,0.939715,-0.341958,0.939715,1.85038e-07
0.35,0.939373,-0.342898,0.939373,1.85516e-07
0.351,0.939029,-0.343837,0.939029,1.85979e-07
0.352,0.938685,-0.344776,0.938685,1.86449e-07
0.353,0.93834,-0.345714,0.93834,1.869e-07
0.354,0.937993,-0.346652,0.937994,1.87362e-07
0.355,0.937646,-0.34759,0.937646,1.87834e-07
0.356,0.937298,-0.348528,0.937298,1.88308e-07
0.357,0.936949,-0.349465,0.936949,1.88761e-07
0.358,0.936599,-0.350402,0.936599,1.89212e-07
0.359,0.936248,-0.351338,0.936249,1.89675e-07
0.36,0.935897,-0.352274,0.935897,1.90139e-07
0.361,0.935544,-0.35321,0.935544,1.90613e-07
0.362,0.93519,-0.354145,0.93519,1.91066e-07
0.363,0.934836,-0.35508,0.934836,1.91528e-07
0.364,0.93448,-0.356015,0.93448,1.91987e-07
0.365,0.934124,-0.356949,0.934124,1.92452e-07
0.366,0.933766,-0.357883,0.933766,1.92906e-07
0.367,0.933408,-0.358817,0.933408,1.93362e-07
0.368,0.933049,-0.35975,0.933049,1.93809e-07
0.369,0.932688,-0.360683,0.932688,1.94275e-07
0.37,0.932327,-0.361615,0.932327,1.94732e-07
0.371,0.931965,-0.362548,0.931965,1.95193e-07
0.372,0.931602,-0.363479,0.931602,1.95648e-07
0.373,0.931238,-0.364411,0.931238,1.96099e-07
0.374,0.930873,-0.365342,0.930873,1.96555e-07
0.375,0.930507,-0.366272,0.930508,1.97012e-07
0.376,0.930141,-0.367203,0.930141,1.97477e-07
0.377,0.929773,-0.368133,0.929773,1.97919e-07
0.378,0.929404,-0.369062,0.929405,1.98364e-07
0.379,0.929035,-0.369992,0.929035,1.98816e-07
0.38,0.928664,-0.37092,0.928665,1.99282e-07
0.381,0.928293,-0.371849,0.928293,1.99738e-07
0.382,0.927921,-0.372777,0.927921,2.00198e-07
0.383,0.927547,-0.373705,0.927548,2.00665e-07
0.384,0.927173,-0.374632,0.927174,2.01114e-07
0.385,0.926798,-0.375559,0.926798,2.01555e-07
0.386,0.926422,-0.376486,0.926422,2.02002e-07
0.387,0.926045,-0.377412,0.926045,2.02455e-07
0.388,0.925667,-0.378338,0.925668,2.0291e-07
0.389,0.925289,-0.379263,0.925289,2.03357e-07
0.39,0.924909,-0.380188,0.924909,2.03803e-07
0.391,0.924528,-0.381113,0.924528,2.04225e-07
0.392,0.924147,-0.382037,0.924147,2.04683e-07
0.393,0.923764,-0.382961,0.923764,2.05124e-07
0.394,0.923381,-0.383885,0.923381,2.05579e-07
0.395,0.922996,-0.384808,0.922997,2.06035e-07
0.396,0.922611,-0.385731,0.922611,2.06479e-07
0.397,0.922225,-0.386653,0.922225,2.06941e-07
0.398,0.921838,-0.387575,0.921838,2.0738e-07
0.399,0.92145,-0.388497,0.92145,2.07817e-07
0.4,0.921061,-0.389418,0.921061,2.08257e-07
0.401,0.920671,-0.390339,0.920671,2.08695e-07
0.402,0.92028,-0.39126,0.92028,2.09143e-07
0.403,0.919888,-0.39218,0.919889,2.09593e-07
0.404,0.919496,-0.393099,0.919496,2.10032e-07
0.405,0.919102,-0.394019,0.919102,2.10467e-07
0.406,0.918708,-0.394938,0.918708,2.10904e-07
0.407,0.918312,-0.395856,0.918313,2.11347e-07
0.408,0.917916,-0.396774,0.917916,2.11787e-07
0.409,0.917519,-0.397692,0.917519,2.12214e-07
0.41,0.917121,-0.398609,0.917121,2.12656e-07
0.411,0.916722,-0.399526,0.916722,2.13072e-07
0.412,0.916322,-0.400443,0.916322,2.13514e-07
0.413,0.915921,-0.401359,0.915921,2.13949e-07
0.414,0.915519,-0.402275,0.915519,2.14386e-07
0.415,0.915116,-0.40319,0.915116,2.1482e-07
0.416,0.914712,-0.404105,0.914713,2.15251e-07
0.417,0.914308,-0.405019,0.914308,2.15692e-07
0.418,0.913902,-0.405933,0.913903,2.16123e-07
0.419,0.913496,-0.406847,0.913496,2.16563e-07
0.42,0.913089,-0.40776,0.913089,2.16987e-07
0.421,0.912681,-0.408673,0.912681,2.17439e-07
0.422,0.912271,-0.409586,0.912272,2.1787e-07
0.423,0.911861,-0.410498,0.911862,2.18289e-07
0.424,0.91145,-0.411409,0.911451,2.18734e-07
0.425,0.911039,-0.412321,0.911039,2.19154e-07
0.426,0.910626,-0.413232,0.910626,2.19565e-07
0.427,0.910212,-0.414142,0.910212,2.19992e-07
0.428,0.909797,-0.415052,0.909798,2.20418e-07
0.429,0.909382,-0.415962,0.909382,2.20845e-07
0.43,0.908966,-0.416871,0.908966,2.21253e-07
0.431,0.908548,-0.417779,0.908548,2.21683e-07
0.432,0.90813,-0.418688,0.90813,2.22111e-07
0.433,0.907711,-0.419596,0.907711,2.22525e-07
0.434,0.907291,-0.420503,0.907291,2.22942e-07
0.435,0.90687,-0.42141,0.90687,2.23369e-07
0.436,0.906448,-0.422317,0.906448,2.23791e-07
0.437,0.906025,-0.423223,0.906025,2.24224e-07
