

                         DEM06: SINGLE PARTICLE, TERMINAL VELOCITY


       DES_ONEWAY_COUPLED =      T
       DES_INTERP_ON =           F    
       DES_INTERP_MEAN_FIELDS =  F    
       DES_EXPLICITLY_COUPLED =  F

          Time                 Pos             Pos_MFIX         %REL DIFF
        0.00000000          0.09250000        0.09250000        0.00000000
        0.01000000          0.09243469        0.09243466        0.00003429
        0.02000000          0.09225799        0.09225793        0.00006781
        0.03000000          0.09199408        0.09199399        0.00010059
        0.04000000          0.09166198        0.09166186        0.00013249
        0.05000000          0.09127660        0.09127645        0.00016340
        0.06000000          0.09084963        0.09084945        0.00019323
        0.07000000          0.09039021        0.09039001        0.00022192
        0.08000000          0.08990549        0.08990527        0.00024946
        0.09000000          0.08940104        0.08940080        0.00027441
        0.10000000          0.08888122        0.08888095        0.00029697
        0.11000000          0.08834941        0.08834913        0.00031814
        0.12000000          0.08780827        0.08780797        0.00033857
        0.13000000          0.08725986        0.08725954        0.00035863
        0.14000000          0.08670578        0.08670545        0.00037854
        0.15000000          0.08614729        0.08614695        0.00039842
        0.16000000          0.08558537        0.08558501        0.00041835
        0.17000000          0.08502077        0.08502039        0.00043837
        0.18000000          0.08445408        0.08445369        0.00045734
        0.19000000          0.08388577        0.08388538        0.00047468
        0.20000000          0.08331620        0.08331579        0.00049148
        0.21000000          0.08274565        0.08274523        0.00050839
        0.22000000          0.08217433        0.08217390        0.00052576
        0.23000000          0.08160241        0.08160197        0.00054373
        0.24000000          0.08103003        0.08102957        0.00056237
        0.25000000          0.08045728        0.08045682        0.00058166
        0.26000000          0.07988426        0.07988378        0.00060150
        0.27000000          0.07931101        0.07931052        0.00062011
        0.28000000          0.07873760        0.07873709        0.00063776
        0.29000000          0.07816405        0.07816353        0.00065540
        0.30000000          0.07759039        0.07758987        0.00067356
        0.31000000          0.07701666        0.07701613        0.00069250
        0.32000000          0.07644287        0.07644232        0.00071231
        0.33000000          0.07586902        0.07586846        0.00073299
        0.34000000          0.07529514        0.07529457        0.00075452
        0.35000000          0.07472123        0.07472064        0.00077649


       DES_ONEWAY_COUPLED =      T
       DES_INTERP_ON =           T     DES_INTERP_SCHEME = GARG_2012                       
       DES_INTERP_MEAN_FIELDS =  T    
       DES_EXPLICITLY_COUPLED =  F

          Time                 Pos             Pos_MFIX         %REL DIFF
        0.00000000          0.09250000        0.09250000        0.00000000
        0.01000000          0.09243469        0.09243466        0.00003427
        0.02000000          0.09225799        0.09225793        0.00006688
        0.03000000          0.09199408        0.09199399        0.00009708
        0.04000000          0.09166198        0.09166186        0.00012453
        0.05000000          0.09127660        0.09127646        0.00014910
        0.06000000          0.09084963        0.09084947        0.00017084
        0.07000000          0.09039021        0.09039004        0.00018988
        0.08000000          0.08990549        0.08990531        0.00020642
        0.09000000          0.08940104        0.08940084        0.00022069
        0.10000000          0.08888122        0.08888101        0.00023300
        0.11000000          0.08834941        0.08834920        0.00024365
        0.12000000          0.08780827        0.08780805        0.00025287
        0.13000000          0.08725986        0.08725963        0.00026087
        0.14000000          0.08670578        0.08670555        0.00026784
        0.15000000          0.08614729        0.08614705        0.00027391
        0.16000000          0.08558537        0.08558513        0.00027921
        0.17000000          0.08502077        0.08502052        0.00028383
        0.18000000          0.08445408        0.08445384        0.00028784
        0.19000000          0.08388577        0.08388553        0.00029140
        0.20000000          0.08331620        0.08331596        0.00029464
        0.21000000          0.08274565        0.08274540        0.00029764
        0.22000000          0.08217433        0.08217408        0.00030045
        0.23000000          0.08160241        0.08160216        0.00030312
        0.24000000          0.08103003        0.08102978        0.00030564
        0.25000000          0.08045728        0.08045704        0.00030802
        0.26000000          0.07988426        0.07988401        0.00031023
        0.27000000          0.07931101        0.07931076        0.00031231
        0.28000000          0.07873760        0.07873735        0.00031433
        0.29000000          0.07816405        0.07816380        0.00031635
        0.30000000          0.07759039        0.07759015        0.00031841
        0.31000000          0.07701666        0.07701641        0.00032050
        0.32000000          0.07644287        0.07644262        0.00032261
        0.33000000          0.07586902        0.07586877        0.00032473
        0.34000000          0.07529514        0.07529489        0.00032681
        0.35000000          0.07472123        0.07472098        0.00032882


       DES_ONEWAY_COUPLED =      T
       DES_INTERP_ON =           T     DES_INTERP_SCHEME = SQUARE_DPVM                     
       DES_INTERP_MEAN_FIELDS =  T     DES_INTERP_WIDTH =   0.002000
       DES_EXPLICITLY_COUPLED =  F

          Time                 Pos             Pos_MFIX         %REL DIFF
        0.00000000          0.09250000        0.09250000        0.00000000
        0.01000000          0.09243469        0.09243466        0.00003429
        0.02000000          0.09225799        0.09225793        0.00006781
        0.03000000          0.09199408        0.09199399        0.00010059
        0.04000000          0.09166198        0.09166186        0.00013249
        0.05000000          0.09127660        0.09127645        0.00016340
        0.06000000          0.09084963        0.09084945        0.00019323
        0.07000000          0.09039021        0.09039001        0.00022187
        0.08000000          0.08990549        0.08990527        0.00024902
        0.09000000          0.08940104        0.08940080        0.00027420
        0.10000000          0.08888122        0.08888095        0.00029730
        0.11000000          0.08834941        0.08834913        0.00031886
        0.12000000          0.08780827        0.08780797        0.00033955
        0.13000000          0.08725986        0.08725954        0.00035979
        0.14000000          0.08670578        0.08670545        0.00037982
        0.15000000          0.08614729        0.08614695        0.00039979
        0.16000000          0.08558537        0.08558501        0.00041978
        0.17000000          0.08502077        0.08502039        0.00043961
        0.18000000          0.08445408        0.08445369        0.00045867
        0.19000000          0.08388577        0.08388537        0.00047657
        0.20000000          0.08331620        0.08331579        0.00049377
        0.21000000          0.08274565        0.08274523        0.00051095
        0.22000000          0.08217433        0.08217389        0.00052851
        0.23000000          0.08160241        0.08160196        0.00054661
        0.24000000          0.08103003        0.08102957        0.00056534
        0.25000000          0.08045728        0.08045681        0.00058467
        0.26000000          0.07988426        0.07988377        0.00060424
        0.27000000          0.07931101        0.07931052        0.00062327
        0.28000000          0.07873760        0.07873709        0.00064148
        0.29000000          0.07816405        0.07816353        0.00065948
        0.30000000          0.07759039        0.07758987        0.00067786
        0.31000000          0.07701666        0.07701612        0.00069693
        0.32000000          0.07644287        0.07644232        0.00071682
        0.33000000          0.07586902        0.07586846        0.00073756
        0.34000000          0.07529514        0.07529457        0.00075905
        0.35000000          0.07472123        0.07472064        0.00078070


       DES_ONEWAY_COUPLED =      F
       DES_INTERP_ON =           F    
       DES_INTERP_MEAN_FIELDS =  F    
       DES_EXPLICITLY_COUPLED =  F

          Time                 Pos             Pos_MFIX         %REL DIFF
        0.00000000          0.09250000        0.09250000        0.00000000
        0.01000000          0.09243469        0.09243418        0.00055229
        0.02000000          0.09225799        0.09225485        0.00341113
        0.03000000          0.09199408        0.09198519        0.00966911
        0.04000000          0.09166198        0.09164394        0.01968146
        0.05000000          0.09127660        0.09124612        0.03339166
        0.06000000          0.09084963        0.09080372        0.05053660
        0.07000000          0.09039021        0.09032625        0.07076862
        0.08000000          0.08990549        0.08982148        0.09344512
        0.09000000          0.08940104        0.08929766        0.11563902
        0.10000000          0.08888122        0.08875859        0.13796733
        0.11000000          0.08834941        0.08820675        0.16147516
        0.12000000          0.08780827        0.08764436        0.18666748
        0.13000000          0.08725986        0.08707337        0.21371176
        0.14000000          0.08670578        0.08649544        0.24258621
        0.15000000          0.08614729        0.08591196        0.27317573
        0.16000000          0.08558537        0.08532405        0.30532921
        0.17000000          0.08502077        0.08473307        0.33838341
        0.18000000          0.08445408        0.08414208        0.36943063
        0.19000000          0.08388577        0.08355049        0.39968838
        0.20000000          0.08331620        0.08295758        0.43043434
        0.21000000          0.08274565        0.08236308        0.46234229
        0.22000000          0.08217433        0.08176698        0.49570603
        0.23000000          0.08160241        0.08116943        0.53060081
        0.24000000          0.08103003        0.08057060        0.56698786
        0.25000000          0.08045728        0.07997070        0.60477031
        0.26000000          0.07988426        0.07937197        0.64128811
        0.27000000          0.07931101        0.07877478        0.67611317
        0.28000000          0.07873760        0.07817780        0.71096147
        0.29000000          0.07816405        0.07758032        0.74679591
        0.30000000          0.07759039        0.07698202        0.78408439
        0.31000000          0.07701666        0.07638282        0.82299912
        0.32000000          0.07644287        0.07578274        0.86355059
        0.33000000          0.07586902        0.07518190        0.90567043
        0.34000000          0.07529514        0.07458139        0.94793643
        0.35000000          0.07472123        0.07398313        0.98779694


       DES_ONEWAY_COUPLED =      F
       DES_INTERP_ON =           T     DES_INTERP_SCHEME = GARG_2012                       
       DES_INTERP_MEAN_FIELDS =  T    
       DES_EXPLICITLY_COUPLED =  F

          Time                 Pos             Pos_MFIX         %REL DIFF
        0.00000000          0.09250000        0.09250000        0.00000000
        0.01000000          0.09243469        0.09243461        0.00008748
        0.02000000          0.09225799        0.09225761        0.00041523
        0.03000000          0.09199408        0.09199307        0.00110429
        0.04000000          0.09166198        0.09165996        0.00219814
        0.05000000          0.09127660        0.09127322        0.00369813
        0.06000000          0.09084963        0.09084455        0.00559046
        0.07000000          0.09039021        0.09038311        0.00786418
        0.08000000          0.08990549        0.08989603        0.01052140
        0.09000000          0.08940104        0.08938893        0.01354575
        0.10000000          0.08888122        0.08886625        0.01683387
        0.11000000          0.08834941        0.08833150        0.02027094
        0.12000000          0.08780827        0.08778739        0.02377333
        0.13000000          0.08725986        0.08723604        0.02729679
        0.14000000          0.08670578        0.08667904        0.03083377
        0.15000000          0.08614729        0.08611765        0.03440769
        0.16000000          0.08558537        0.08555279        0.03806723
        0.17000000          0.08502077        0.08498516        0.04188154
        0.18000000          0.08445408        0.08441531        0.04590958
        0.19000000          0.08388577        0.08384375        0.05009613
        0.20000000          0.08331620        0.08327093        0.05434425
        0.21000000          0.08274565        0.08269717        0.05858424
        0.22000000          0.08217433        0.08212273        0.06278782
        0.23000000          0.08160241        0.08154776        0.06696551
        0.24000000          0.08103003        0.08097237        0.07115988
        0.25000000          0.08045728        0.08039659        0.07543878
        0.26000000          0.07988426        0.07982044        0.07988916
        0.27000000          0.07931101        0.07924395        0.08455318
        0.28000000          0.07873760        0.07866724        0.08934991
        0.29000000          0.07816405        0.07809043        0.09418393
        0.30000000          0.07759039        0.07751358        0.09899611
        0.31000000          0.07701666        0.07693674        0.10377147
        0.32000000          0.07644287        0.07635990        0.10853436
        0.33000000          0.07586902        0.07578303        0.11334091
        0.34000000          0.07529514        0.07520608        0.11827221
        0.35000000          0.07472123        0.07462900        0.12342194


       DES_ONEWAY_COUPLED =      F
       DES_INTERP_ON =           T     DES_INTERP_SCHEME = SQUARE_DPVM                     
       DES_INTERP_MEAN_FIELDS =  T     DES_INTERP_WIDTH =   0.003000
       DES_EXPLICITLY_COUPLED =  F

          Time                 Pos             Pos_MFIX         %REL DIFF
        0.00000000          0.09250000        0.09250000        0.00000000
        0.01000000          0.09243469        0.09243441        0.00030470
        0.02000000          0.09225799        0.09225631        0.00181983
        0.03000000          0.09199408        0.09198936        0.00513152
        0.04000000          0.09166198        0.09165241        0.01044009
        0.05000000          0.09127660        0.09126042        0.01772454
        0.06000000          0.09084963        0.09082529        0.02679073
        0.07000000          0.09039021        0.09035658        0.03720759
        0.08000000          0.08990549        0.08986195        0.04842892
        0.09000000          0.08940104        0.08934736        0.06004327
        0.10000000          0.08888122        0.08881726        0.07195743
        0.11000000          0.08834941        0.08827486        0.08437717
        0.12000000          0.08780827        0.08772258        0.09758885
        0.13000000          0.08725986        0.08716234        0.11174968
        0.14000000          0.08670578        0.08659576        0.12689277
        0.15000000          0.08614729        0.08602413        0.14297007
        0.16000000          0.08558537        0.08544868        0.15970406
        0.17000000          0.08502077        0.08487068        0.17653059
        0.18000000          0.08445408        0.08429107        0.19301125
        0.19000000          0.08388577        0.08371032        0.20915207
        0.20000000          0.08331620        0.08312845        0.22534563
        0.21000000          0.08274565        0.08254538        0.24202679
        0.22000000          0.08217433        0.08196113        0.25944145
        0.23000000          0.08160241        0.08137581        0.27768480
        0.24000000          0.08103003        0.08078960        0.29671028
        0.25000000          0.08045728        0.08020295        0.31610986
        0.26000000          0.07988426        0.07961641        0.33530008
        0.27000000          0.07931101        0.07903024        0.35401210
        0.28000000          0.07873760        0.07844431        0.37248052
        0.29000000          0.07816405        0.07785826        0.39121106
        0.30000000          0.07759039        0.07727181        0.41059680
        0.31000000          0.07701666        0.07668485        0.43082814
        0.32000000          0.07644287        0.07609737        0.45196020
        0.33000000          0.07586902        0.07550956        0.47379300
        0.34000000          0.07529514        0.07492187        0.49574187
        0.35000000          0.07472123        0.07433470        0.51729406


       DES_ONEWAY_COUPLED =      F
       DES_INTERP_ON =           T     DES_INTERP_SCHEME = SQUARE_DPVM                     
       DES_INTERP_MEAN_FIELDS =  T     DES_INTERP_WIDTH =   0.004000
       DES_EXPLICITLY_COUPLED =  F

          Time                 Pos             Pos_MFIX         %REL DIFF
        0.00000000          0.09250000        0.09250000        0.00000000
        0.01000000          0.09243469        0.09243455        0.00015825
        0.02000000          0.09225799        0.09225719        0.00087530
        0.03000000          0.09199408        0.09199185        0.00243030
        0.04000000          0.09166198        0.09165746        0.00492363
        0.05000000          0.09127660        0.09126900        0.00833007
        0.06000000          0.09084963        0.09083825        0.01252307
        0.07000000          0.09039021        0.09037456        0.01731525
        0.08000000          0.08990549        0.08988525        0.02251435
        0.09000000          0.08940104        0.08937603        0.02797947
        0.10000000          0.08888122        0.08885130        0.03365705
        0.11000000          0.08834941        0.08831444        0.03958150
        0.12000000          0.08780827        0.08776802        0.04584027
        0.13000000          0.08725986        0.08721403        0.05251737
        0.14000000          0.08670578        0.08665406        0.05964831
        0.15000000          0.08614729        0.08608941        0.06719278
        0.16000000          0.08558537        0.08552118        0.07499508
        0.17000000          0.08502077        0.08495032        0.08285655
        0.18000000          0.08445408        0.08437753        0.09063999
        0.19000000          0.08388577        0.08380329        0.09833088
        0.20000000          0.08331620        0.08322786        0.10603231
        0.21000000          0.08274565        0.08265140        0.11390577
        0.22000000          0.08217433        0.08207400        0.12209018
        0.23000000          0.08160241        0.08149579        0.13065277
