time,position,velocity,exact_solution,abs_error
0,1,0,1,0
0.001,0.999999,-0.001,1,6.63802e-13
0.002,0.999998,-0.002,0.999998,6.26832e-12
0.003,0.999995,-0.003,0.999996,1.18795e-11
0.004,0.999992,-0.00399999,0.999992,1.74868e-11
0.005,0.999988,-0.00499998,0.999988,2.30898e-11
0.006,0.999982,-0.00599996,0.999982,2.86885e-11
0.007,0.999976,-0.00699994,0.999976,3.42829e-11
0.008,0.999968,-0.00799991,0.999968,3.98728e-11
0.009,0.99996,-0.00899988,0.99996,4.54582e-11
0.01,0.99995,-0.00999983,0.99995,5.10396e-11
0.011,0.99994,-0.0109998,0.99994,5.66165e-11
0.012,0.999928,-0.0119997,0.999928,6.21894e-11
0.013,0.999916,-0.0129996,0.999916,6.77578e-11
0.014,0.999902,-0.0139995,0.999902,7.33219e-11
0.015,0.999888,-0.0149994,0.999888,7.88807e-11
0.016,0.999872,-0.0159993,0.999872,8.44351e-11
0.017,0.999856,-0.0169992,0.999856,8.99854e-11
0.018,0.999838,-0.017999,0.999838,9.55308e-11
0.019,0.99982,-0.0189989,0.99982,1.01071e-10
0.02,0.9998,-0.0199987,0.9998,1.06607e-10
0.021,0.99978,-0.0209985,0.99978,1.12138e-10
0.022,0.999758,-0.0219982,0.999758,1.17665e-10
0.023,0.999736,-0.022998,0.999736,1.23186e-10
0.024,0.999712,-0.0239977,0.999712,1.28703e-10
0.025,0.999688,-0.0249974,0.999688,1.34215e-10
0.026,0.999662,-0.0259971,0.999662,1.39722e-10
0.027,0.999636,-0.0269967,0.999636,1.45223e-10
0.028,0.999608,-0.0279963,0.999608,1.50721e-10
0.029,0.99958,-0.0289959,0.99958,1.56213e-10
0.03,0.99955,-0.0299955,0.99955,1.617e-10
0.031,0.99952,-0.030995,0.99952,1.67182e-10
0.032,0.999488,-0.0319945,0.999488,1.72659e-10
0.033,0.999456,-0.032994,0.999456,1.7813e-10
0.034,0.999422,-0.0339934,0.999422,1.83597e-10
0.035,0.999388,-0.0349929,0.999388,1.89058e-10
0.036,0.999352,-0.0359922,0.999352,1.94514e-10
0.037,0.999316,-0.0369916,0.999316,1.99965e-10
0.038,0.999278,-0.0379909,0.999278,2.0541e-10
0.039,0.99924,-0.0389901,0.99924,2.10851e-10
0.04,0.9992,-0.0399893,0.9992,2.16285e-10
0.041,0.99916,-0.0409885,0.99916,2.21715e-10
0.042,0.999118,-0.0419877,0.999118,2.27138e-10
0.043,0.999076,-0.0429867,0.999076,2.32557e-10
0.044,0.999032,-0.0439858,0.999032,2.3797e-10
0.045,0.998988,-0.0449848,0.998988,2.43377e-10
0.046,0.998942,-0.0459838,0.998942,2.48778e-10
0.047,0.998896,-0.0469827,0.998896,2.54174e-10
0.048,0.998848,-0.0479816,0.998848,2.59565e-10
0.049,0.9988,-0.0489804,0.9988,2.64949e-10
0.05,0.99875,-0.0499792,0.99875,2.70329e-10
0.051,0.9987,-0.0509779,0.9987,2.75702e-10
0.052,0.998648,-0.0519766,0.998648,2.8107e-10
0.053,0.998596,-0.0529752,0.998596,2.86431e-10
0.054,0.998542,-0.0539738,0.998542,2.91788e-10
0.055,0.998488,-0.0549723,0.998488,2.97137e-10
0.056,0.998432,-0.0559707,0.998432,3.02481e-10
0.057,0.998376,-0.0569691,0.998376,3.07819e-10
0.058,0.998318,-0.0579675,0.998318,3.13152e-10
0.059,0.99826,-0.0589658,0.99826,3.18478e-10
0.06,0.998201,-0.059964,0.998201,3.23798e-10
0.061,0.99814,-0.0609622,0.99814,3.29112e-10
0.062,0.998079,-0.0619603,0.998079,3.34421e-10
0.063,0.998016,-0.0629583,0.998016,3.39723e-10
0.064,0.997953,-0.0639563,0.997953,3.45019e-10
0.065,0.997888,-0.0649542,0.997888,3.50309e-10
0.066,0.997823,-0.0659521,0.997823,3.55593e-10
0.067,0.997756,-0.0669499,0.997756,3.6087e-10
0.068,0.997689,-0.0679476,0.997689,3.66141e-10
0.069,0.99762,-0.0689453,0.99762,3.71406e-10
0.07,0.997551,-0.0699428,0.997551,3.76665e-10
0.071,0.997481,-0.0709404,0.997481,3.81917e-10
0.072,0.997409,-0.0719378,0.997409,3.87163e-10
0.073,0.997337,-0.0729352,0.997337,3.92403e-10
0.074,0.997263,-0.0739325,0.997263,3.97636e-10
0.075,0.997189,-0.0749297,0.997189,4.02863e-10
0.076,0.997113,-0.0759269,0.997113,4.08083e-10
0.077,0.997037,-0.0769239,0.997037,4.13297e-10
0.078,0.99696,-0.0779209,0.99696,4.18504e-10
0.079,0.996881,-0.0789179,0.996881,4.23705e-10
0.08,0.996802,-0.0799147,0.996802,4.28899e-10
0.081,0.996721,-0.0809115,0.996721,4.34087e-10
0.082,0.99664,-0.0819081,0.99664,4.39268e-10
0.083,0.996557,-0.0829047,0.996557,4.44442e-10
0.084,0.996474,-0.0839013,0.996474,4.4961e-10
0.085,0.99639,-0.0848977,0.99639,4.54771e-10
0.086,0.996304,-0.085894,0.996304,4.59926e-10
0.087,0.996218,-0.0868903,0.996218,4.65073e-10
0.088,0.99613,-0.0878865,0.99613,4.70214e-10
0.089,0.996042,-0.0888826,0.996042,4.75347e-10
0.09,0.995953,-0.0898785,0.995953,4.80474e-10
0.091,0.995862,-0.0908745,0.995862,4.85595e-10
0.092,0.995771,-0.0918703,0.995771,4.90708e-10
0.093,0.995679,-0.092866,0.995679,4.95815e-10
0.094,0.995585,-0.0938616,0.995585,5.00914e-10
0.095,0.995491,-0.0948572,0.995491,5.06007e-10
0.096,0.995396,-0.0958526,0.995396,5.11092e-10
0.097,0.995299,-0.096848,0.995299,5.16171e-10
0.098,0.995202,-0.0978432,0.995202,5.21242e-10
0.099,0.995104,-0.0988384,0.995104,5.26307e-10
0.1,0.995004,-0.0998334,0.995004,5.31364e-10
0.101,0.994904,-0.100828,0.994904,5.36414e-10
0.102,0.994803,-0.101823,0.994803,5.41458e-10
0.103,0.9947,-0.102818,0.9947,5.46494e-10
0.104,0.994597,-0.103813,0.994597,5.51522e-10
0.105,0.994493,-0.104807,0.994493,5.56544e-10
0.106,0.994387,-0.105802,0.994387,5.61558e-10
0.107,0.994281,-0.106796,0.994281,5.66566e-10
0.108,0.994174,-0.10779,0.994174,5.71565e-10
0.109,0.994065,-0.108784,0.994065,5.76558e-10
0.11,0.993956,-0.109778,0.993956,5.81543e-10
0.111,0.993846,-0.110772,0.993846,5.86522e-10
0.112,0.993735,-0.111766,0.993735,5.91493e-10
0.113,0.993622,-0.11276,0.993622,5.96456e-10
0.114,0.993509,-0.113753,0.993509,6.01412e-10
0.115,0.993395,-0.114747,0.993395,6.06361e-10
0.116,0.99328,-0.11574,0.99328,6.11302e-10
0.117,0.993163,-0.116733,0.993163,6.16236e-10
0.118,0.993046,-0.117726,0.993046,6.21162e-10
0.119,0.992928,-0.118719,0.992928,6.26081e-10
0.12,0.992809,-0.119712,0.992809,6.30992e-10
0.121,0.992688,-0.120705,0.992688,6.35896e-10
0.122,0.992567,-0.121698,0.992567,6.40792e-10
0.123,0.992445,-0.12269,0.992445,6.45681e-10
0.124,0.992322,-0.123682,0.992322,6.50562e-10
0.125,0.992198,-0.124675,0.992198,6.55435e-10
0.126,0.992072,-0.125667,0.992072,6.60301e-10
0.127,0.991946,-0.126659,0.991946,6.65159e-10
0.128,0.991819,-0.127651,0.991819,6.70009e-10
0.129,0.991691,-0.128643,0.991691,6.74852e-10
0.13,0.991562,-0.129634,0.991562,6.79686e-10
0.131,0.991432,-0.130626,0.991432,6.84513e-10
0.132,0.991301,-0.131617,0.991301,6.89333e-10
0.133,0.991169,-0.132608,0.991169,6.94145e-10
0.134,0.991035,-0.133599,0.991035,6.98948e-10
0.135,0.990901,-0.13459,0.990901,7.03744e-10
0.136,0.990766,-0.135581,0.990766,7.08532e-10
0.137,0.99063,-0.136572,0.99063,7.13312e-10
0.138,0.990493,-0.137562,0.990493,7.18084e-10
0.139,0.990355,-0.138553,0.990355,7.22849e-10
0.14,0.990216,-0.139543,0.990216,7.27605e-10
0.141,0.990076,-0.140533,0.990076,7.32354e-10
0.142,0.989935,-0.141523,0.989935,7.37094e-10
0.143,0.989793,-0.142513,0.989793,7.41827e-10
0.144,0.98965,-0.143503,0.98965,7.46551e-10
0.145,0.989506,-0.144492,0.989506,7.51268e-10
0.146,0.989361,-0.145482,0.989361,7.55977e-10
0.147,0.989215,-0.146471,0.989215,7.60677e-10
0.148,0.989068,-0.14746,0.989068,7.65369e-10
0.149,0.98892,-0.148449,0.98892,7.70053e-10
0.15,0.988771,-0.149438,0.988771,7.74729e-10
0.151,0.988621,-0.150427,0.988621,7.79397e-10
0.152,0.98847,-0.151415,0.98847,7.84057e-10
0.153,0.988318,-0.152404,0.988318,7.88708e-10
0.154,0.988165,-0.153392,0.988165,7.93351e-10
0.155,0.988012,-0.15438,0.988012,7.97987e-10
0.156,0.987857,-0.155368,0.987857,8.02614e-10
0.157,0.987701,-0.156356,0.987701,8.07233e-10
0.158,0.987544,-0.157343,0.987544,8.11843e-10
0.159,0.987386,-0.158331,0.987386,8.16446e-10
0.16,0.987227,-0.159318,0.987227,8.21039e-10
0.161,0.987067,-0.160305,0.987067,8.25625e-10
0.162,0.986907,-0.161292,0.986907,8.30202e-10
0.163,0.986745,-0.162279,0.986745,8.34771e-10
0.164,0.986582,-0.163266,0.986582,8.39332e-10
0.165,0.986418,-0.164252,0.986418,8.43884e-10
0.166,0.986254,-0.165239,0.986254,8.48428e-10
0.167,0.986088,-0.166225,0.986088,8.52963e-10
0.168,0.985921,-0.167211,0.985921,8.5749e-10
0.169,0.985753,-0.168197,0.985753,8.62009e-10
0.17,0.985585,-0.169182,0.985585,8.66518e-10
0.171,0.985415,-0.170168,0.985415,8.7102e-10
0.172,0.985244,-0.171153,0.985244,8.75513e-10
0.173,0.985073,-0.172138,0.985073,8.79998e-10
0.174,0.9849,-0.173123,0.9849,8.84475e-10
0.175,0.984727,-0.174108,0.984727,8.88943e-10
0.176,0.984552,-0.175093,0.984552,8.93402e-10
0.177,0.984376,-0.176077,0.984376,8.97853e-10
0.178,0.9842,-0.177062,0.9842,9.02295e-10
0.179,0.984022,-0.178046,0.984022,9.06728e-10
0.18,0.983844,-0.17903,0.983844,9.11153e-10
0.181,0.983664,-0.180013,0.983664,9.15569e-10
0.182,0.983484,-0.180997,0.983484,9.19977e-10
0.183,0.983302,-0.18198,0.983302,9.24376e-10
0.184,0.98312,-0.182964,0.98312,9.28766e-10
0.185,0.982936,-0.183947,0.982936,9.33148e-10
0.186,0.982752,-0.184929,0.982752,9.37521e-10
0.187,0.982566,-0.185912,0.982566,9.41885e-10
0.188,0.98238,-0.186895,0.98238,9.4624e-10
0.189,0.982193,-0.187877,0.982193,9.50587e-10
0.19,0.982004,-0.188859,0.982004,9.54925e-10
0.191,0.981815,-0.189841,0.981815,9.59254e-10
0.192,0.981625,-0.190823,0.981625,9.63574e-10
0.193,0.981433,-0.191804,0.981433,9.67885e-10
0.194,0.981241,-0.192785,0.981241,9.72188e-10
0.195,0.981048,-0.193767,0.981048,9.76482e-10
0.196,0.980853,-0.194747,0.980853,9.80767e-10
0.197,0.980658,-0.195728,0.980658,9.85044e-10
0.198,0.980462,-0.196709,0.980462,9.89311e-10
0.199,0.980265,-0.197689,0.980265,9.9357e-10
0.2,0.980067,-0.198669,0.980067,9.97819e-10
0.201,0.979867,-0.199649,0.979867,1.00206e-09
0.202,0.979667,-0.200629,0.979667,1.00629e-09
0.203,0.979466,-0.201609,0.979466,1.01051e-09
0.204,0.979264,-0.202588,0.979264,1.01473e-09
0.205,0.979061,-0.203567,0.979061,1.01893e-09
0.206,0.978857,-0.204546,0.978857,1.02313e-09
0.207,0.978652,-0.205525,0.978652,1.02732e-09
0.208,0.978446,-0.206503,0.978446,1.03149e-09
0.209,0.978239,-0.207482,0.978239,1.03566e-09
0.21,0.978031,-0.20846,0.978031,1.03982e-09
0.211,0.977822,-0.209438,0.977822,1.04397e-09
0.212,0.977612,-0.210416,0.977612,1.04812e-09
0.213,0.977401,-0.211393,0.977401,1.05225e-09
0.214,0.977189,-0.21237,0.977189,1.05637e-09
0.215,0.976976,-0.213347,0.976976,1.06049e-09
0.216,0.976763,-0.214324,0.976763,1.06459e-09
0.217,0.976548,-0.215301,0.976548,1.06869e-09
0.218,0.976332,-0.216277,0.976332,1.07278e-09
0.219,0.976115,-0.217254,0.976115,1.07685e-09
0.22,0.975897,-0.21823,0.975897,1.08092e-09
0.221,0.975679,-0.219205,0.975679,1.08498e-09
0.222,0.975459,-0.220181,0.975459,1.08903e-09
0.223,0.975238,-0.221156,0.975238,1.09307e-09
0.224,0.975017,-0.222131,0.975017,1.09711e-09
0.225,0.974794,-0.223106,0.974794,1.10113e-09
0.226,0.974571,-0.224081,0.974571,1.10514e-09
0.227,0.974346,-0.225056,0.974346,1.10915e-09
0.228,0.97412,-0.22603,0.97412,1.11314e-09
0.229,0.973894,-0.227004,0.973894,1.11713e-09
0.23,0.973666,-0.227978,0.973666,1.12111e-09
0.231,0.973438,-0.228951,0.973438,1.12507e-09
0.232,0.973208,-0.229924,0.973208,1.12903e-09
0.233,0.972978,-0.230897,0.972978,1.13298e-09
0.234,0.972747,-0.23187,0.972747,1.13692e-09
0.235,0.972514,-0.232843,0.972514,1.14085e-09
0.236,0.972281,-0.233815,0.972281,1.14477e-09
0.237,0.972047,-0.234788,0.972047,1.14868e-09
0.238,0.971811,-0.235759,0.971811,1.15259e-09
0.239,0.971575,-0.236731,0.971575,1.15648e-09
0.24,0.971338,-0.237703,0.971338,1.16036e-09
0.241,0.9711,-0.238674,0.9711,1.16424e-09
0.242,0.970861,-0.239645,0.970861,1.1681e-09
0.243,0.97062,-0.240616,0.97062,1.17196e-09
0.244,0.970379,-0.241586,0.970379,1.1758e-09
0.245,0.970137,-0.242556,0.970137,1.17964e-09
0.246,0.969894,-0.243526,0.969894,1.18347e-09
0.247,0.96965,-0.244496,0.96965,1.18728e-09
0.248,0.969405,-0.245466,0.969405,1.19109e-09
0.249,0.969159,-0.246435,0.969159,1.19489e-09
0.25,0.968912,-0.247404,0.968912,1.19868e-09
0.251,0.968665,-0.248373,0.968665,1.20246e-09
0.252,0.968416,-0.249341,0.968416,1.20623e-09
0.253,0.968166,-0.25031,0.968166,1.20999e-09
0.254,0.967915,-0.251278,0.967915,1.21374e-09
0.255,0.967663,-0.252245,0.967663,1.21749e-09
0.256,0.967411,-0.253213,0.967411,1.22122e-09
0.257,0.967157,-0.25418,0.967157,1.22494e-09
0.258,0.966902,-0.255147,0.966902,1.22865e-09
0.259,0.966647,-0.256114,0.966647,1.23236e-09
0.26,0.96639,-0.257081,0.96639,1.23605e-09
0.261,0.966132,-0.258047,0.966132,1.23974e-09
0.262,0.965874,-0.259013,0.965874,1.24341e-09
0.263,0.965614,-0.259979,0.965614,1.24708e-09
0.264,0.965354,-0.260944,0.965354,1.25073e-09
0.265,0.965092,-0.261909,0.965093,1.25438e-09
0.266,0.96483,-0.262874,0.96483,1.25802e-09
0.267,0.964567,-0.263839,0.964567,1.26164e-09
0.268,0.964302,-0.264803,0.964302,1.26526e-09
0.269,0.964037,-0.265768,0.964037,1.26887e-09
0.27,0.963771,-0.266731,0.963771,1.27247e-09
0.271,0.963504,-0.267695,0.963504,1.27605e-09
0.272,0.963236,-0.268658,0.963236,1.27963e-09
0.273,0.962966,-0.269622,0.962966,1.2832e-09
0.274,0.962696,-0.270584,0.962696,1.28676e-09
0.275,0.962425,-0.271547,0.962425,1.29031e-09
0.276,0.962153,-0.272509,0.962153,1.29385e-09
0.277,0.96188,-0.273471,0.96188,1.29738e-09
0.278,0.961606,-0.274433,0.961606,1.3009e-09
0.279,0.961331,-0.275394,0.961331,1.30441e-09
0.28,0.961055,-0.276356,0.961055,1.30791e-09
0.281,0.960779,-0.277317,0.960779,1.3114e-09
0.282,0.960501,-0.278277,0.960501,1.31488e-09
0.283,0.960222,-0.279238,0.960222,1.31836e-09
0.284,0.959942,-0.280198,0.959942,1.32182e-09
0.285,0.959662,-0.281157,0.959662,1.32527e-09
0.286,0.95938,-0.282117,0.95938,1.32871e-09
0.287,0.959097,-0.283076,0.959097,1.33214e-09
0.288,0.958814,-0.284035,0.958814,1.33557e-09
0.289,0.958529,-0.284994,0.958529,1.33898e-09
0.29,0.958244,-0.285952,0.958244,1.34238e-09
0.291,0.957957,-0.28691,0.957957,1.34578e-09
0.292,0.95767,-0.287868,0.95767,1.34916e-09
0.293,0.957382,-0.288826,0.957382,1.35253e-09
0.294,0.957092,-0.289783,0.957092,1.3559e-09
0.295,0.956802,-0.29074,0.956802,1.35925e-09
0.296,0.956511,-0.291697,0.956511,1.36259e-09
0.297,0.956219,-0.292653,0.956219,1.36593e-09
0.298,0.955926,-0.293609,0.955926,1.36925e-09
0.299,0.955632,-0.294565,0.955632,1.37257e-09
0.3,0.955336,-0.29552,0.955336,1.37587e-09
0.301,0.95504,-0.296475,0.95504,1.37916e-09
0.302,0.954744,-0.29743,0.954744,1.38245e-09
0.303,0.954446,-0.298385,0.954446,1.38572e-09
0.304,0.954147,-0.299339,0.954147,1.38899e-09
0.305,0.953847,-0.300293,0.953847,1.39224e-09
0.306,0.953546,-0.301247,0.953546,1.39549e-09
0.307,0.953244,-0.3022,0.953244,1.39872e-09
0.308,0.952942,-0.303153,0.952942,1.40195e-09
0.309,0.952638,-0.304106,0.952638,1.40516e-09
0.31,0.952334,-0.305059,0.952334,1.40837e-09
0.311,0.952028,-0.306011,0.952028,1.41156e-09
0.312,0.951722,-0.306963,0.951722,1.41475e-09
0.313,0.951414,-0.307914,0.951414,1.41792e-09
0.314,0.951106,-0.308866,0.951106,1.42109e-09
0.315,0.950796,-0.309816,0.950796,1.42424e-09
0.316,0.950486,-0.310767,0.950486,1.42739e-09
0.317,0.950175,-0.311717,0.950175,1.43052e-09
0.318,0.949863,-0.312667,0.949863,1.43365e-09
0.319,0.94955,-0.313617,0.94955,1.43676e-09
0.32,0.949235,-0.314567,0.949235,1.43987e-09
0.321,0.94892,-0.315516,0.94892,1.44296e-09
0.322,0.948604,-0.316464,0.948604,1.44605e-09
0.323,0.948287,-0.317413,0.948287,1.44912e-09
0.324,0.94797,-0.318361,0.94797,1.45218e-09
0.325,0.947651,-0.319309,0.947651,1.45524e-09
0.326,0.947331,-0.320256,0.947331,1.45828e-09
0.327,0.94701,-0.321203,0.94701,1.46132e-09
0.328,0.946689,-0.32215,0.946689,1.46434e-09
0.329,0.946366,-0.323097,0.946366,1.46736e-09
0.33,0.946042,-0.324043,0.946042,1.47036e-09
0.331,0.945718,-0.324989,0.945718,1.47335e-09
0.332,0.945392,-0.325934,0.945392,1.47634e-09
0.333,0.945066,-0.32688,0.945066,1.47931e-09
0.334,0.944739,-0.327825,0.944739,1.48228e-09
0.335,0.94441,-0.328769,0.94441,1.48523e-09
0.336,0.944081,-0.329713,0.944081,1.48817e-09
0.337,0.943751,-0.330657,0.943751,1.49111e-09
0.338,0.94342,-0.331601,0.94342,1.49403e-09
0.339,0.943088,-0.332544,0.943088,1.49694e-09
0.34,0.942755,-0.333487,0.942755,1.49984e-09
0.341,0.942421,-0.33443,0.942421,1.50274e-09
0.342,0.942086,-0.335372,0.942086,1.50562e-09
0.343,0.94175,-0.336314,0.94175,1.50849e-09
0.344,0.941413,-0.337255,0.941413,1.51135e-09
0.345,0.941075,-0.338197,0.941075,1.5142e-09
0.346,0.940737,-0.339138,0.940737,1.51705e-09
0.347,0.940397,-0.340078,0.940397,1.51988e-09
0.348,0.940057,-0.341018,0.940057,1.5227e-09
0.349,0.939715,-0.341958,0.939715,1.52551e-09
0.35,0.939373,-0.342898,0.939373,1.52831e-09
0.351,0.939029,-0.343837,0.939029,1.5311e-09
0.352,0.938685,-0.344776,0.938685,1.53388e-09
0.353,0.93834,-0.345714,0.93834,1.53665e-09
0.354,0.937994,-0.346653,0.937994,1.53941e-09
0.355,0.937646,-0.34759,0.937646,1.54216e-09
0.356,0.937298,-0.348528,0.937298,1.5449e-09
0.357,0.936949,-0.349465,0.936949,1.54763e-09
0.358,0.936599,-0.350402,0.936599,1.55035e-09
0.359,0.936249,-0.351338,0.936249,1.55305e-09
0.36,0.935897,-0.352274,0.935897,1.55575e-09
0.361,0.935544,-0.35321,0.935544,1.55844e-09
0.362,0.93519,-0.354145,0.93519,1.56112e-09
0.363,0.934836,-0.35508,0.934836,1.56379e-09
0.364,0.93448,-0.356015,0.93448,1.56644e-09
0.365,0.934124,-0.356949,0.934124,1.56909e-09
0.366,0.933766,-0.357883,0.933766,1.57173e-09
0.367,0.933408,-0.358817,0.933408,1.57435e-09
0.368,0.933049,-0.35975,0.933049,1.57697e-09
0.369,0.932688,-0.360683,0.932688,1.57957e-09
0.37,0.932327,-0.361615,0.932327,1.58217e-09
0.371,0.931965,-0.362548,0.931965,1.58475e-09
0.372,0.931602,-0.363479,0.931602,1.58733e-09
0.373,0.931238,-0.364411,0.931238,1.58989e-09
0.374,0.930873,-0.365342,0.930873,1.59244e-09
0.375,0.930508,-0.366273,0.930508,1.59499e-09
0.376,0.930141,-0.367203,0.930141,1.59752e-09
0.377,0.929773,-0.368133,0.929773,1.60004e-09
0.378,0.929405,-0.369062,0.929405,1.60255e-09
0.379,0.929035,-0.369992,0.929035,1.60506e-09
0.38,0.928665,-0.37092,0.928665,1.60755e-09
0.381,0.928293,-0.371849,0.928293,1.61003e-09
0.382,0.927921,-0.372777,0.927921,1.6125e-09
0.383,0.927548,-0.373705,0.927548,1.61496e-09
0.384,0.927174,-0.374632,0.927174,1.61741e-09
0.385,0.926798,-0.375559,0.926798,1.61985e-09
0.386,0.926422,-0.376486,0.926422,1.62228e-09
0.387,0.926045,-0.377412,0.926045,1.6247e-09
0.388,0.925668,-0.378338,0.925668,1.62711e-09
0.389,0.925289,-0.379263,0.925289,1.6295e-09
0.39,0.924909,-0.380188,0.924909,1.63189e-09
0.391,0.924528,-0.381113,0.924528,1.63427e-09
0.392,0.924147,-0.382037,0.924147,1.63663e-09
0.393,0.923764,-0.382961,0.923764,1.63899e-09
0.394,0.923381,-0.383885,0.923381,1.64134e-09
0.395,0.922997,-0.384808,0.922997,1.64367e-09
0.396,0.922611,-0.385731,0.922611,1.646e-09
0.397,0.922225,-0.386653,0.922225,1.64831e-09
0.398,0.921838,-0.387575,0.921838,1.65061e-09
0.399,0.92145,-0.388497,0.92145,1.65291e-09
0.4,0.921061,-0.389418,0.921061,1.65519e-09
0.401,0.920671,-0.390339,0.920671,1.65746e-09
0.402,0.92028,-0.39126,0.92028,1.65973e-09
0.403,0.919889,-0.39218,0.919889,1.66198e-09
0.404,0.919496,-0.393099,0.919496,1.66422e-09
0.405,0.919102,-0.394019,0.919102,1.66645e-09
0.406,0.918708,-0.394938,0.918708,1.66867e-09
0.407,0.918313,-0.395856,0.918313,1.67088e-09
0.408,0.917916,-0.396774,0.917916,1.67308e-09
0.409,0.917519,-0.397692,0.917519,1.67527e-09
0.41,0.917121,-0.398609,0.917121,1.67744e-09
0.411,0.916722,-0.399526,0.916722,1.67961e-09
0.412,0.916322,-0.400443,0.916322,1.68177e-09
0.413,0.915921,-0.401359,0.915921,1.68391e-09
0.414,0.915519,-0.402275,0.915519,1.68605e-09
0.415,0.915116,-0.40319,0.915116,1.68818e-09
0.416,0.914713,-0.404105,0.914713,1.69029e-09
0.417,0.914308,-0.405019,0.914308,1.6924e-09
0.418,0.913903,-0.405933,0.913903,1.69449e-09
0.419,0.913496,-0.406847,0.913496,1.69657e-09
0.42,0.913089,-0.40776,0.913089,1.69864e-09
0.421,0.912681,-0.408673,0.912681,1.70071e-09
0.422,0.912272,-0.409586,0.912272,1.70276e-09
0.423,0.911862,-0.410498,0.911862,1.7048e-09
0.424,0.911451,-0.41141,0.911451,1.70683e-09
0.425,0.911039,-0.412321,0.911039,1.70885e-09
0.426,0.910626,-0.413232,0.910626,1.71086e-09
0.427,0.910212,-0.414142,0.910212,1.71286e-09
0.428,0.909798,-0.415052,0.909798,1.71485e-09
0.429,0.909382,-0.415962,0.909382,1.71682e-09
0.43,0.908966,-0.416871,0.908966,1.71879e-09
0.431,0.908548,-0.41778,0.908548,1.72075e-09
0.432,0.90813,-0.418688,0.90813,1.72269e-09
0.433,0.907711,-0.419596,0.907711,1.72463e-09
0.434,0.907291,-0.420503,0.907291,1.72655e-09
0.435,0.90687,-0.42141,0.90687,1.72847e-09
0.436,0.906448,-0.422317,0.906448,1.73037e-09
0.437,0.906025,-0.423223,0.906025,1.73226e-09
