time,position,velocity,exact_solution,abs_error
0,1,0,1,0
0.001,0.999999,-0.001,1,4.71845e-14
0.002,0.999998,-0.002,0.999998,5.9186e-13
0.003,0.999996,-0.003,0.999996,1.13665e-12
0.004,0.999992,-0.00399999,0.999992,1.68121e-12
0.005,0.999988,-0.00499998,0.999988,2.226e-12
0.006,0.999982,-0.00599996,0.999982,2.77067e-12
0.007,0.999976,-0.00699994,0.999976,3.31468e-12
0.008,0.999968,-0.00799991,0.999968,3.85869e-12
0.009,0.99996,-0.00899988,0.99996,4.40226e-12
0.01,0.99995,-0.00999983,0.99995,4.94627e-12
0.011,0.99994,-0.0109998,0.99994,5.49039e-12
0.012,0.999928,-0.0119997,0.999928,6.03395e-12
0.013,0.999916,-0.0129996,0.999916,6.57752e-12
0.014,0.999902,-0.0139995,0.999902,7.1213e-12
0.015,0.999888,-0.0149994,0.999888,7.66498e-12
0.016,0.999872,-0.0159993,0.999872,8.20843e-12
0.017,0.999856,-0.0169992,0.999856,8.75156e-12
0.018,0.999838,-0.017999,0.999838,9.29501e-12
0.019,0.99982,-0.0189989,0.99982,9.83846e-12
0.02,0.9998,-0.0199987,0.9998,1.03816e-11
0.021,0.99978,-0.0209985,0.99978,1.09238e-11
0.022,0.999758,-0.0219982,0.999758,1.14666e-11
0.023,0.999736,-0.022998,0.999736,1.20092e-11
0.024,0.999712,-0.0239977,0.999712,1.25513e-11
0.025,0.999688,-0.0249974,0.999688,1.30936e-11
0.026,0.999662,-0.0259971,0.999662,1.36355e-11
0.027,0.999636,-0.0269967,0.999636,1.41777e-11
0.028,0.999608,-0.0279963,0.999608,1.47194e-11
0.029,0.99958,-0.0289959,0.99958,1.5261e-11
0.03,0.99955,-0.0299955,0.99955,1.58026e-11
0.031,0.99952,-0.030995,0.99952,1.63439e-11
0.032,0.999488,-0.0319945,0.999488,1.68853e-11
0.033,0.999456,-0.032994,0.999456,1.74263e-11
0.034,0.999422,-0.0339934,0.999422,1.79671e-11
0.035,0.999388,-0.0349929,0.999388,1.85075e-11
0.036,0.999352,-0.0359922,0.999352,1.90478e-11
0.037,0.999316,-0.0369916,0.999316,1.95878e-11
0.038,0.999278,-0.0379909,0.999278,2.01277e-11
0.039,0.99924,-0.0389901,0.99924,2.06681e-11
0.04,0.9992,-0.0399893,0.9992,2.12078e-11
0.041,0.99916,-0.0409885,0.99916,2.17478e-11
0.042,0.999118,-0.0419877,0.999118,2.22871e-11
0.043,0.999076,-0.0429868,0.999076,2.2826e-11
0.044,0.999032,-0.0439858,0.999032,2.33652e-11
0.045,0.998988,-0.0449848,0.998988,2.39038e-11
0.046,0.998942,-0.0459838,0.998942,2.44422e-11
0.047,0.998896,-0.0469827,0.998896,2.49807e-11
0.048,0.998848,-0.0479816,0.998848,2.55188e-11
0.049,0.9988,-0.0489804,0.9988,2.60572e-11
0.05,0.99875,-0.0499792,0.99875,2.65945e-11
0.051,0.9987,-0.0509779,0.9987,2.71319e-11
0.052,0.998648,-0.0519766,0.998648,2.76688e-11
0.053,0.998596,-0.0529752,0.998596,2.82057e-11
0.054,0.998542,-0.0539738,0.998542,2.87423e-11
0.055,0.998488,-0.0549723,0.998488,2.92786e-11
0.056,0.998432,-0.0559707,0.998432,2.98153e-11
0.057,0.998376,-0.0569691,0.998376,3.03513e-11
0.058,0.998318,-0.0579675,0.998318,3.0887e-11
0.059,0.99826,-0.0589658,0.99826,3.14226e-11
0.06,0.998201,-0.059964,0.998201,3.19583e-11
0.061,0.99814,-0.0609622,0.99814,3.24935e-11
0.062,0.998079,-0.0619603,0.998079,3.30282e-11
0.063,0.998016,-0.0629583,0.998016,3.35626e-11
0.064,0.997953,-0.0639563,0.997953,3.40968e-11
0.065,0.997888,-0.0649542,0.997888,3.46309e-11
0.066,0.997823,-0.0659521,0.997823,3.51646e-11
0.067,0.997756,-0.0669499,0.997756,3.56979e-11
0.068,0.997689,-0.0679476,0.997689,3.62309e-11
0.069,0.99762,-0.0689453,0.99762,3.67641e-11
0.07,0.997551,-0.0699428,0.997551,3.72964e-11
0.071,0.997481,-0.0709404,0.997481,3.78289e-11
0.072,0.997409,-0.0719378,0.997409,3.83608e-11
0.073,0.997337,-0.0729352,0.997337,3.88926e-11
0.074,0.997263,-0.0739325,0.997263,3.94244e-11
0.075,0.997189,-0.0749297,0.997189,3.99548e-11
0.076,0.997113,-0.0759269,0.997113,4.04859e-11
0.077,0.997037,-0.0769239,0.997037,4.10165e-11
0.078,0.99696,-0.0779209,0.99696,4.15471e-11
0.079,0.996881,-0.0789179,0.996881,4.20771e-11
0.08,0.996802,-0.0799147,0.996802,4.26068e-11
0.081,0.996721,-0.0809115,0.996721,4.31363e-11
0.082,0.99664,-0.0819081,0.99664,4.36652e-11
0.083,0.996557,-0.0829047,0.996557,4.41939e-11
0.084,0.996474,-0.0839013,0.996474,4.47226e-11
0.085,0.99639,-0.0848977,0.99639,4.52508e-11
0.086,0.996304,-0.085894,0.996304,4.57783e-11
0.087,0.996218,-0.0868903,0.996218,4.63062e-11
0.088,0.99613,-0.0878865,0.99613,4.68331e-11
0.089,0.996042,-0.0888826,0.996042,4.73601e-11
0.09,0.995953,-0.0898785,0.995953,4.78869e-11
0.091,0.995862,-0.0908745,0.995862,4.84127e-11
0.092,0.995771,-0.0918703,0.995771,4.89386e-11
0.093,0.995679,-0.092866,0.995679,4.94641e-11
0.094,0.995585,-0.0938616,0.995585,4.99899e-11
0.095,0.995491,-0.0948572,0.995491,5.05148e-11
0.096,0.995396,-0.0958526,0.995396,5.10395e-11
0.097,0.995299,-0.096848,0.995299,5.15635e-11
0.098,0.995202,-0.0978432,0.995202,5.20877e-11
0.099,0.995104,-0.0988384,0.995104,5.2611e-11
0.1,0.995004,-0.0998334,0.995004,5.31343e-11
0.101,0.994904,-0.100828,0.994904,5.36575e-11
0.102,0.994803,-0.101823,0.994803,5.41801e-11
0.103,0.9947,-0.102818,0.9947,5.4702e-11
0.104,0.994597,-0.103813,0.994597,5.52237e-11
0.105,0.994493,-0.104807,0.994493,5.5745e-11
0.106,0.994387,-0.105802,0.994387,5.62659e-11
0.107,0.994281,-0.106796,0.994281,5.67868e-11
0.108,0.994174,-0.10779,0.994174,5.73073e-11
0.109,0.994065,-0.108784,0.994065,5.78274e-11
0.11,0.993956,-0.109778,0.993956,5.83471e-11
0.111,0.993846,-0.110772,0.993846,5.88667e-11
0.112,0.993735,-0.111766,0.993735,5.93855e-11
0.113,0.993622,-0.11276,0.993622,5.99041e-11
0.114,0.993509,-0.113753,0.993509,6.04223e-11
0.115,0.993395,-0.114747,0.993395,6.09403e-11
0.116,0.99328,-0.11574,0.99328,6.14576e-11
0.117,0.993163,-0.116733,0.993163,6.19743e-11
0.118,0.993046,-0.117726,0.993046,6.24907e-11
0.119,0.992928,-0.118719,0.992928,6.30066e-11
0.12,0.992809,-0.119712,0.992809,6.35229e-11
0.121,0.992688,-0.120705,0.992688,6.4038e-11
0.122,0.992567,-0.121698,0.992567,6.4553e-11
0.123,0.992445,-0.12269,0.992445,6.50674e-11
0.124,0.992322,-0.123682,0.992322,6.55818e-11
0.125,0.992198,-0.124675,0.992198,6.6095e-11
0.126,0.992072,-0.125667,0.992072,6.66085e-11
0.127,0.991946,-0.126659,0.991946,6.71216e-11
0.128,0.991819,-0.127651,0.991819,6.76342e-11
0.129,0.991691,-0.128643,0.991691,6.81465e-11
0.13,0.991562,-0.129634,0.991562,6.8658e-11
0.131,0.991432,-0.130626,0.991432,6.9169e-11
0.132,0.991301,-0.131617,0.991301,6.96802e-11
0.133,0.991169,-0.132608,0.991169,7.0191e-11
0.134,0.991035,-0.133599,0.991035,7.07009e-11
0.135,0.990901,-0.13459,0.990901,7.12104e-11
0.136,0.990766,-0.135581,0.990766,7.17196e-11
0.137,0.99063,-0.136572,0.99063,7.2228e-11
0.138,0.990493,-0.137562,0.990493,7.27362e-11
0.139,0.990355,-0.138553,0.990355,7.32441e-11
0.14,0.990216,-0.139543,0.990216,7.37519e-11
0.141,0.990076,-0.140533,0.990076,7.42592e-11
0.142,0.989935,-0.141523,0.989935,7.47656e-11
0.143,0.989793,-0.142513,0.989793,7.5272e-11
0.144,0.98965,-0.143503,0.98965,7.57776e-11
0.145,0.989506,-0.144492,0.989506,7.62832e-11
0.146,0.989361,-0.145482,0.989361,7.6788e-11
0.147,0.989215,-0.146471,0.989215,7.72924e-11
0.148,0.989068,-0.14746,0.989068,7.77961e-11
0.149,0.98892,-0.148449,0.98892,7.82996e-11
0.15,0.988771,-0.149438,0.988771,7.88029e-11
0.151,0.988621,-0.150427,0.988621,7.93056e-11
0.152,0.98847,-0.151415,0.98847,7.98083e-11
0.153,0.988318,-0.152404,0.988318,8.03099e-11
0.154,0.988165,-0.153392,0.988165,8.08108e-11
0.155,0.988012,-0.15438,0.988012,8.13113e-11
0.156,0.987857,-0.155368,0.987857,8.18114e-11
0.157,0.987701,-0.156356,0.987701,8.23113e-11
0.158,0.987544,-0.157343,0.987544,8.28105e-11
0.159,0.987386,-0.158331,0.987386,8.3309e-11
0.16,0.987227,-0.159318,0.987227,8.38077e-11
0.161,0.987067,-0.160305,0.987067,8.43056e-11
0.162,0.986907,-0.161292,0.986907,8.48032e-11
0.163,0.986745,-0.162279,0.986745,8.53003e-11
0.164,0.986582,-0.163266,0.986582,8.57967e-11
0.165,0.986418,-0.164252,0.986418,8.62925e-11
0.166,0.986254,-0.165239,0.986254,8.67882e-11
0.167,0.986088,-0.166225,0.986088,8.72832e-11
0.168,0.985921,-0.167211,0.985921,8.7778e-11
0.169,0.985753,-0.168197,0.985753,8.82722e-11
0.17,0.985585,-0.169182,0.985585,8.87658e-11
0.171,0.985415,-0.170168,0.985415,8.92587e-11
0.172,0.985244,-0.171153,0.985244,8.97512e-11
0.173,0.985073,-0.172138,0.985073,9.02436e-11
0.174,0.9849,-0.173123,0.9849,9.07353e-11
0.175,0.984727,-0.174108,0.984727,9.12267e-11
0.176,0.984552,-0.175093,0.984552,9.17174e-11
0.177,0.984376,-0.176077,0.984376,9.22078e-11
0.178,0.9842,-0.177062,0.9842,9.26977e-11
0.179,0.984022,-0.178046,0.984022,9.31868e-11
0.18,0.983844,-0.17903,0.983844,9.36756e-11
0.181,0.983664,-0.180013,0.983664,9.41639e-11
0.182,0.983484,-0.180997,0.983484,9.46515e-11
0.183,0.983302,-0.18198,0.983302,9.51386e-11
0.184,0.98312,-0.182964,0.98312,9.56253e-11
0.185,0.982936,-0.183947,0.982936,9.61118e-11
0.186,0.982752,-0.184929,0.982752,9.65978e-11
0.187,0.982566,-0.185912,0.982566,9.7083e-11
0.188,0.98238,-0.186895,0.98238,9.75673e-11
0.189,0.982193,-0.187877,0.982193,9.80516e-11
0.19,0.982004,-0.188859,0.982004,9.85353e-11
0.191,0.981815,-0.189841,0.981815,9.90181e-11
0.192,0.981625,-0.190823,0.981625,9.95007e-11
0.193,0.981433,-0.191804,0.981433,9.99829e-11
0.194,0.981241,-0.192785,0.981241,1.00464e-10
0.195,0.981048,-0.193767,0.981048,1.00945e-10
0.196,0.980853,-0.194747,0.980853,1.01425e-10
0.197,0.980658,-0.195728,0.980658,1.01905e-10
0.198,0.980462,-0.196709,0.980462,1.02385e-10
0.199,0.980265,-0.197689,0.980265,1.02864e-10
0.2,0.980067,-0.198669,0.980067,1.03342e-10
0.201,0.979867,-0.199649,0.979867,1.0382e-10
0.202,0.979667,-0.200629,0.979667,1.04298e-10
0.203,0.979466,-0.201609,0.979466,1.04774e-10
0.204,0.979264,-0.202588,0.979264,1.05251e-10
0.205,0.979061,-0.203567,0.979061,1.05727e-10
0.206,0.978857,-0.204546,0.978857,1.06202e-10
0.207,0.978652,-0.205525,0.978652,1.06676e-10
0.208,0.978446,-0.206503,0.978446,1.07151e-10
0.209,0.978239,-0.207482,0.978239,1.07624e-10
0.21,0.978031,-0.20846,0.978031,1.08097e-10
0.211,0.977822,-0.209438,0.977822,1.0857e-10
0.212,0.977612,-0.210416,0.977612,1.09042e-10
0.213,0.977401,-0.211393,0.977401,1.09513e-10
0.214,0.977189,-0.21237,0.977189,1.09984e-10
0.215,0.976976,-0.213347,0.976976,1.10454e-10
0.216,0.976763,-0.214324,0.976763,1.10924e-10
0.217,0.976548,-0.215301,0.976548,1.11393e-10
0.218,0.976332,-0.216277,0.976332,1.11862e-10
0.219,0.976115,-0.217254,0.976115,1.1233e-10
0.22,0.975897,-0.21823,0.975897,1.12797e-10
0.221,0.975679,-0.219205,0.975679,1.13264e-10
0.222,0.975459,-0.220181,0.975459,1.1373e-10
0.223,0.975238,-0.221156,0.975238,1.14196e-10
0.224,0.975017,-0.222131,0.975017,1.14607e-10
0.225,0.974794,-0.223106,0.974794,1.15016e-10
0.226,0.974571,-0.224081,0.974571,1.15424e-10
0.227,0.974346,-0.225056,0.974346,1.15831e-10
0.228,0.97412,-0.22603,0.97412,1.16236e-10
0.229,0.973894,-0.227004,0.973894,1.16639e-10
0.23,0.973666,-0.227978,0.973666,1.17041e-10
0.231,0.973438,-0.228951,0.973438,1.17443e-10
0.232,0.973208,-0.229924,0.973208,1.17842e-10
0.233,0.972978,-0.230897,0.972978,1.1824e-10
0.234,0.972747,-0.23187,0.972747,1.18637e-10
0.235,0.972514,-0.232843,0.972514,1.19033e-10
0.236,0.972281,-0.233815,0.972281,1.19427e-10
0.237,0.972047,-0.234788,0.972047,1.1982e-10
0.238,0.971811,-0.235759,0.971811,1.20211e-10
0.239,0.971575,-0.236731,0.971575,1.206e-10
0.24,0.971338,-0.237703,0.971338,1.20989e-10
0.241,0.9711,-0.238674,0.9711,1.21376e-10
0.242,0.970861,-0.239645,0.970861,1.21762e-10
0.243,0.97062,-0.240616,0.97062,1.22146e-10
0.244,0.970379,-0.241586,0.970379,1.22529e-10
0.245,0.970137,-0.242556,0.970137,1.22911e-10
0.246,0.969894,-0.243526,0.969894,1.23291e-10
0.247,0.96965,-0.244496,0.96965,1.2367e-10
0.248,0.969405,-0.245466,0.969405,1.24048e-10
0.249,0.969159,-0.246435,0.969159,1.24424e-10
0.25,0.968912,-0.247404,0.968912,1.24798e-10
0.251,0.968665,-0.248373,0.968665,1.25172e-10
0.252,0.968416,-0.249341,0.968416,1.25543e-10
0.253,0.968166,-0.25031,0.968166,1.25914e-10
0.254,0.967915,-0.251278,0.967915,1.26283e-10
0.255,0.967663,-0.252245,0.967663,1.26651e-10
0.256,0.967411,-0.253213,0.967411,1.27017e-10
0.257,0.967157,-0.25418,0.967157,1.27382e-10
0.258,0.966902,-0.255147,0.966902,1.27745e-10
0.259,0.966647,-0.256114,0.966647,1.28107e-10
0.26,0.96639,-0.257081,0.96639,1.28468e-10
0.261,0.966132,-0.258047,0.966132,1.28827e-10
0.262,0.965874,-0.259013,0.965874,1.29185e-10
0.263,0.965614,-0.259979,0.965614,1.29541e-10
0.264,0.965354,-0.260944,0.965354,1.29897e-10
0.265,0.965093,-0.261909,0.965093,1.3025e-10
0.266,0.96483,-0.262874,0.96483,1.30602e-10
0.267,0.964567,-0.263839,0.964567,1.30953e-10
0.268,0.964302,-0.264803,0.964302,1.31302e-10
0.269,0.964037,-0.265768,0.964037,1.3165e-10
0.27,0.963771,-0.266731,0.963771,1.31996e-10
0.271,0.963504,-0.267695,0.963504,1.32342e-10
0.272,0.963236,-0.268658,0.963236,1.32685e-10
0.273,0.962966,-0.269622,0.962966,1.33028e-10
0.274,0.962696,-0.270584,0.962696,1.33369e-10
0.275,0.962425,-0.271547,0.962425,1.33708e-10
0.276,0.962153,-0.272509,0.962153,1.34046e-10
0.277,0.96188,-0.273471,0.96188,1.34382e-10
0.278,0.961606,-0.274433,0.961606,1.34717e-10
0.279,0.961331,-0.275394,0.961331,1.35051e-10
0.28,0.961055,-0.276356,0.961055,1.35383e-10
0.281,0.960779,-0.277317,0.960779,1.35713e-10
0.282,0.960501,-0.278277,0.960501,1.36042e-10
0.283,0.960222,-0.279238,0.960222,1.3637e-10
0.284,0.959942,-0.280198,0.959942,1.36697e-10
0.285,0.959662,-0.281157,0.959662,1.37021e-10
0.286,0.95938,-0.282117,0.95938,1.37345e-10
0.287,0.959097,-0.283076,0.959097,1.37667e-10
0.288,0.958814,-0.284035,0.958814,1.37987e-10
0.289,0.958529,-0.284994,0.958529,1.38306e-10
0.29,0.958244,-0.285952,0.958244,1.38623e-10
0.291,0.957957,-0.28691,0.957957,1.38939e-10
0.292,0.95767,-0.287868,0.95767,1.39254e-10
0.293,0.957382,-0.288826,0.957382,1.39567e-10
0.294,0.957092,-0.289783,0.957092,1.39879e-10
0.295,0.956802,-0.29074,0.956802,1.40189e-10
0.296,0.956511,-0.291697,0.956511,1.40498e-10
0.297,0.956219,-0.292653,0.956219,1.40805e-10
0.298,0.955926,-0.293609,0.955926,1.41111e-10
0.299,0.955632,-0.294565,0.955632,1.41416e-10
0.3,0.955336,-0.29552,0.955336,1.41718e-10
0.301,0.95504,-0.296475,0.95504,1.4202e-10
0.302,0.954744,-0.29743,0.954744,1.4232e-10
0.303,0.954446,-0.298385,0.954446,1.42619e-10
0.304,0.954147,-0.299339,0.954147,1.42916e-10
0.305,0.953847,-0.300293,0.953847,1.43212e-10
0.306,0.953546,-0.301247,0.953546,1.43506e-10
0.307,0.953244,-0.3022,0.953244,1.43798e-10
0.308,0.952942,-0.303153,0.952942,1.4409e-10
0.309,0.952638,-0.304106,0.952638,1.4438e-10
0.31,0.952334,-0.305059,0.952334,1.44668e-10
0.311,0.952028,-0.306011,0.952028,1.44955e-10
0.312,0.951722,-0.306963,0.951722,1.45241e-10
0.313,0.951414,-0.307914,0.951414,1.45525e-10
0.314,0.951106,-0.308866,0.951106,1.45807e-10
0.315,0.950796,-0.309816,0.950796,1.46088e-10
0.316,0.950486,-0.310767,0.950486,1.46368e-10
0.317,0.950175,-0.311717,0.950175,1.46646e-10
0.318,0.949863,-0.312667,0.949863,1.46922e-10
0.319,0.94955,-0.313617,0.94955,1.47198e-10
0.32,0.949235,-0.314567,0.949235,1.47471e-10
0.321,0.94892,-0.315516,0.94892,1.47744e-10
0.322,0.948604,-0.316464,0.948604,1.48014e-10
0.323,0.948287,-0.317413,0.948287,1.48283e-10
0.324,0.94797,-0.318361,0.94797,1.48551e-10
0.325,0.947651,-0.319309,0.947651,1.48817e-10
0.326,0.947331,-0.320256,0.947331,1.49081e-10
0.327,0.94701,-0.321203,0.94701,1.49344e-10
0.328,0.946689,-0.32215,0.946689,1.49606e-10
0.329,0.946366,-0.323097,0.946366,1.49867e-10
0.33,0.946042,-0.324043,0.946042,1.50125e-10
0.331,0.945718,-0.324989,0.945718,1.50382e-10
0.332,0.945392,-0.325934,0.945392,1.50638e-10
0.333,0.945066,-0.32688,0.945066,1.50892e-10
0.334,0.944739,-0.327825,0.944739,1.51144e-10
0.335,0.94441,-0.328769,0.94441,1.51396e-10
0.336,0.944081,-0.329713,0.944081,1.51645e-10
0.337,0.943751,-0.330657,0.943751,1.51894e-10
0.338,0.94342,-0.331601,0.94342,1.5214e-10
0.339,0.943088,-0.332544,0.943088,1.52385e-10
0.34,0.942755,-0.333487,0.942755,1.52629e-10
0.341,0.942421,-0.33443,0.942421,1.52871e-10
0.342,0.942086,-0.335372,0.942086,1.53112e-10
0.343,0.94175,-0.336314,0.94175,1.53352e-10
0.344,0.941413,-0.337255,0.941413,1.53589e-10
0.345,0.941075,-0.338197,0.941075,1.53825e-10
0.346,0.940737,-0.339138,0.940737,1.5406e-10
0.347,0.940397,-0.340078,0.940397,1.54293e-10
0.348,0.940057,-0.341018,0.940057,1.54525e-10
0.349,0.939715,-0.341958,0.939715,1.54755e-10
0.35,0.939373,-0.342898,0.939373,1.54984e-10
0.351,0.939029,-0.343837,0.939029,1.55211e-10
0.352,0.938685,-0.344776,0.938685,1.55437e-10
0.353,0.93834,-0.345714,0.93834,1.55661e-10
0.354,0.937994,-0.346653,0.937994,1.55884e-10
0.355,0.937646,-0.34759,0.937646,1.56105e-10
0.356,0.937298,-0.348528,0.937298,1.56325e-10
0.357,0.936949,-0.349465,0.936949,1.56542e-10
0.358,0.936599,-0.350402,0.936599,1.56759e-10
0.359,0.936249,-0.351338,0.936249,1.56974e-10
0.36,0.935897,-0.352274,0.935897,1.57187e-10
0.361,0.935544,-0.35321,0.935544,1.57399e-10
0.362,0.93519,-0.354145,0.93519,1.5761e-10
0.363,0.934836,-0.35508,0.934836,1.57819e-10
0.364,0.93448,-0.356015,0.93448,1.58027e-10
0.365,0.934124,-0.356949,0.934124,1.58232e-10
0.366,0.933766,-0.357883,0.933766,1.58437e-10
0.367,0.933408,-0.358817,0.933408,1.5864e-10
0.368,0.933049,-0.35975,0.933049,1.58841e-10
0.369,0.932688,-0.360683,0.932688,1.59041e-10
0.37,0.932327,-0.361615,0.932327,1.59239e-10
0.371,0.931965,-0.362548,0.931965,1.59435e-10
0.372,0.931602,-0.363479,0.931602,1.5963e-10
0.373,0.931238,-0.364411,0.931238,1.59824e-10
0.374,0.930873,-0.365342,0.930873,1.60017e-10
0.375,0.930508,-0.366273,0.930508,1.60208e-10
0.376,0.930141,-0.367203,0.930141,1.60397e-10
0.377,0.929773,-0.368133,0.929773,1.60585e-10
0.378,0.929405,-0.369062,0.929405,1.60771e-10
0.379,0.929035,-0.369992,0.929035,1.60955e-10
0.38,0.928665,-0.37092,0.928665,1.61139e-10
0.381,0.928293,-0.371849,0.928293,1.6132e-10
0.382,0.927921,-0.372777,0.927921,1.615e-10
0.383,0.927548,-0.373705,0.927548,1.61679e-10
0.384,0.927174,-0.374632,0.927174,1.61856e-10
0.385,0.926798,-0.375559,0.926798,1.62032e-10
0.386,0.926422,-0.376486,0.926422,1.62206e-10
0.387,0.926045,-0.377412,0.926045,1.62378e-10
0.388,0.925668,-0.378338,0.925668,1.62549e-10
0.389,0.925289,-0.379263,0.925289,1.62719e-10
0.39,0.924909,-0.380188,0.924909,1.62886e-10
0.391,0.924528,-0.381113,0.924528,1.63053e-10
0.392,0.924147,-0.382037,0.924147,1.63218e-10
0.393,0.923764,-0.382961,0.923764,1.6338e-10
0.394,0.923381,-0.383885,0.923381,1.63542e-10
0.395,0.922997,-0.384808,0.922997,1.63702e-10
0.396,0.922611,-0.385731,0.922611,1.63861e-10
0.397,0.922225,-0.386653,0.922225,1.64018e-10
0.398,0.921838,-0.387575,0.921838,1.64173e-10
0.399,0.92145,-0.388497,0.92145,1.64327e-10
0.4,0.921061,-0.389418,0.921061,1.64479e-10
0.401,0.920671,-0.390339,0.920671,1.64631e-10
0.402,0.92028,-0.39126,0.92028,1.6478e-10
0.403,0.919889,-0.39218,0.919889,1.64928e-10
0.404,0.919496,-0.393099,0.919496,1.65074e-10
0.405,0.919102,-0.394019,0.919102,1.65219e-10
0.406,0.918708,-0.394938,0.918708,1.65363e-10
0.407,0.918313,-0.395856,0.918313,1.65504e-10
0.408,0.917916,-0.396774,0.917916,1.65644e-10
0.409,0.917519,-0.397692,0.917519,1.65783e-10
0.41,0.917121,-0.398609,0.917121,1.6592e-10
0.411,0.916722,-0.399526,0.916722,1.66056e-10
0.412,0.916322,-0.400443,0.916322,1.6619e-10
0.413,0.915921,-0.401359,0.915921,1.66322e-10
0.414,0.915519,-0.402275,0.915519,1.66453e-10
0.415,0.915116,-0.40319,0.915116,1.66582e-10
0.416,0.914713,-0.404105,0.914713,1.6671e-10
0.417,0.914308,-0.405019,0.914308,1.66836e-10
0.418,0.913903,-0.405933,0.913903,1.6696e-10
0.419,0.913496,-0.406847,0.913496,1.67083e-10
0.42,0.913089,-0.40776,0.913089,1.67204e-10
0.421,0.912681,-0.408673,0.912681,1.67324e-10
0.422,0.912272,-0.409586,0.912272,1.67443e-10
0.423,0.911862,-0.410498,0.911862,1.67559e-10
0.424,0.911451,-0.41141,0.911451,1.67675e-10
0.425,0.911039,-0.412321,0.911039,1.67788e-10
0.426,0.910626,-0.413232,0.910626,1.679e-10
0.427,0.910212,-0.414142,0.910212,1.68011e-10
0.428,0.909798,-0.415052,0.909798,1.6812e-10
0.429,0.909382,-0.415962,0.909382,1.68228e-10
0.43,0.908966,-0.416871,0.908966,1.68334e-10
0.431,0.908548,-0.41778,0.908548,1.68438e-10
0.432,0.90813,-0.418688,0.90813,1.68542e-10
0.433,0.907711,-0.419596,0.907711,1.68643e-10
0.434,0.907291,-0.420503,0.907291,1.68743e-10
0.435,0.90687,-0.42141,0.90687,1.68841e-10
0.436,0.906448,-0.422317,0.906448,1.68938e-10
0.437,0.906025,-0.423223,0.906025,1.69033e-10
